time(s),speed(m/s),grade
0,24.676608,-0.000478961425136
1,25.123648,-0.00227244448571
2,25.436576,-0.00373595704027
3,25.794208,-0.00520993112383
4,26.15184,-0.00635101944749
5,26.554176,-0.00742840069379
6,26.9520416,-0.00827340574271
7,27.358848,-0.00887223902011
8,27.71648,-0.00923212946318
9,27.9802336,-0.00927468472225
10,28.2931616,-0.00899932238728
11,28.5166816,-0.0084476024493
12,28.744672,-0.00750277460511
13,28.968192,-0.00623604788445
14,29.1425376,-0.00486701232607
15,29.28112,-0.00311279099824
16,29.459936,-0.00117765283583
17,29.5895776,0.000864621510769
18,29.638752,0.0029412586534
19,29.7683936,0.00498078184211
20,29.95168,0.00689937302987
21,30.130496,0.00864271967588
22,30.309312,0.0101834854226
23,30.39872,0.0115480487356
24,30.4389536,0.0125257663804
25,30.4389536,0.0132411775433
26,30.4836576,0.0137165360674
27,30.532832,0.0138810567948
28,30.577536,0.0137989151073
29,30.532832,0.0134803024662
30,30.4836576,0.0129345229191
31,30.4389536,0.0121553284365
32,30.354016,0.011146114708
33,30.2601376,0.00974501096701
34,30.2601376,0.00837229263021
35,30.309312,0.0066364967546
36,30.354016,0.00462189123521
37,30.4389536,0.00260266740903
38,30.577536,0.000311880110269
39,30.6624736,-0.00172287777884
40,30.801056,-0.00359052824287
41,30.979872,-0.0052178094187
42,31.06928,-0.00612890385483
43,31.2928,-0.00635911578164
44,31.5565536,-0.0057494435044
45,31.8247776,-0.00426220719825
46,32.0482976,-0.00198720543024
47,32.2271136,0.000785766500449
48,32.4506336,0.00454217801624
49,32.589216,0.00798117108825
50,32.768032,0.0119042688885
51,32.85744,0.0158000301992
52,32.812736,0.0193551097525
53,32.6741536,0.0224540159564
54,32.4953376,0.025029410984
55,32.2718176,0.0269638732358
56,32.097472,0.0282324739031
57,31.918656,0.0288031818592
58,31.7800736,0.0287451792928
59,31.695136,0.0282546391366
60,31.6012576,0.0273878114237
61,31.51632,0.0264519637036
62,31.471616,0.025417031527
63,31.3330336,0.0244929098551
64,31.203392,0.0238090424084
65,31.024576,0.0232971636689
66,30.84576,0.022954085644
67,30.756352,0.0228618695185
68,30.6624736,0.0230159354185
69,30.577536,0.023516949358
70,30.577536,0.0243789483742
71,30.4836576,0.0256681271212
72,30.4389536,0.0273482780116
73,30.4389536,0.0295922738992
74,30.4389536,0.0318217913188
75,30.39872,0.034310250845
76,30.354016,0.0364581072478
77,30.4389536,0.0383507282313
78,30.532832,0.039901695191
79,30.801056,0.0407909647882
80,31.2928,0.041201638174
81,31.695136,0.0410642351432
82,32.142176,0.0405080581409
83,32.544512,0.03968804611
84,32.85744,0.0387505421699
85,33.1211936,0.0378178292175
86,33.3447136,0.036877460028
87,33.528,0.0360975053272
88,33.662112,0.0354061167593
89,33.885632,0.0347960361958
90,34.109152,0.0342211523205
91,34.332672,0.0337746317129
92,34.600896,0.0333862620777
93,34.86912,0.0330012215271
94,35.09264,0.0325138450268
95,35.226752,0.0318591491308
96,35.31616,0.030924275406
97,35.31616,0.0296480622515
98,35.450272,0.027980253992
99,35.53968,0.0259978435696
100,35.5799136,0.0237688047611
101,35.5799136,0.0214124367932
102,35.4010976,0.0190101086707
103,35.226752,0.0167048646103
104,34.9540576,0.0146881362388
105,34.6858336,0.013201285722
106,34.4623136,0.0120759477558
107,34.2834976,0.0115425770553
108,34.0152736,0.0114783315222
109,33.7917536,0.0118831942979
110,33.662112,0.0126033898011
111,33.706816,0.0135468608903
112,33.75152,0.0145973003216
113,33.885632,0.0156275150566
114,34.0599776,0.0166542058637
115,34.2387936,0.0174517758603
116,34.377376,0.0180863012037
117,34.5070176,0.0184177429908
118,34.6456,0.0185053987084
119,34.779712,0.0183432885735
120,34.86912,0.0178930906126
121,35.003232,0.0171047998596
122,35.1328736,0.0160106373879
123,35.226752,0.0143335965234
124,35.1328736,0.0121215629391
125,34.9540576,0.00962866274559
126,34.86912,0.00644797881751
127,34.86912,0.00291681954042
128,34.86912,-0.000495326304022
129,34.9093536,-0.00423487504836
130,35.003232,-0.00749523600318
131,35.1328736,-0.0107323328646
132,35.226752,-0.0135009305343
133,35.3563936,-0.0157495651166
134,35.4010976,-0.0174937542853
135,35.4010976,-0.0187039592064
136,35.3563936,-0.0196930331615
137,35.3563936,-0.0204615682857
138,35.4010976,-0.0211130493487
139,35.3563936,-0.0216810422659
140,35.31616,-0.0223103569204
141,35.271456,-0.0229470431334
142,35.271456,-0.0235503264904
143,35.31616,-0.0240215954005
144,35.31616,-0.0243883219801
145,35.31616,-0.0245494501943
146,35.3563936,-0.0244768239784
147,35.3563936,-0.0241219719508
148,35.4010976,-0.0234630156477
149,35.4010976,-0.0225286891559
150,35.3563936,-0.0214025238428
151,35.31616,-0.0203069367234
152,35.226752,-0.0191740349961
153,35.09264,-0.0181404674755
154,35.003232,-0.017150148095
155,35.003232,-0.0161317922804
156,34.9540576,-0.0149015956452
157,35.003232,-0.013437258155
158,34.86912,-0.0115365516459
159,34.86912,-0.00892315485356
160,34.779712,-0.00609824394566
161,34.779712,-0.00272130745849
162,34.7305376,0.000701286509994
163,34.6858336,0.00359149170415
164,34.6456,0.00629390236024
165,34.600896,0.00822088399096
166,34.600896,0.00960003314459
167,34.6858336,0.0102534886578
168,34.779712,0.0102264132743
169,34.824416,0.00959620440202
170,34.9093536,0.00848195489774
171,34.9540576,0.00689437353258
172,35.003232,0.00512806452017
173,35.09264,0.00291984118401
174,35.1775776,0.000524463016747
175,35.271456,-0.00187152416906
176,35.31616,-0.00454991835978
177,35.325284289,-0.00698396736381
178,35.31616,-0.00924754844767
179,35.31616,-0.0109596448781
180,35.3563936,-0.0122792651649
181,35.31616,-0.0129710375093
182,35.271456,-0.012998919156
183,35.226752,-0.0124665732392
184,35.1328736,-0.0115082577604
185,35.003232,-0.010378639174
186,34.86912,-0.00907062017447
187,34.824416,-0.00777749033209
188,34.779712,-0.00663666249881
189,34.779712,-0.00550113448898
190,34.779712,-0.00456121514073
191,34.824416,-0.00363474557624
192,34.86912,-0.00286982780566
193,34.9540576,-0.00210408513606
194,35.003232,-0.00146243099529
195,35.1328736,-0.000834054110637
196,35.226752,-0.000267914330939
197,35.271456,0.000236111668709
198,35.31616,0.000687460207922
199,35.271456,0.00109227448489
200,35.31616,0.00146469376255
201,35.31616,0.00178358079272
202,35.31616,0.00212326321329
203,35.1775776,0.00247548417322
204,35.047936,0.00286014253754
205,34.9540576,0.00332785803419
206,34.9093536,0.00391932326866
207,34.86912,0.00457642508632
208,34.9093536,0.00538443820904
209,34.9540576,0.00624984898483
210,35.047936,0.00704715891249
211,35.09264,0.00759403851032
212,35.1328736,0.0077647129896
213,35.09264,0.00749626894474
214,35.1328736,0.00671556608786
215,35.1328736,0.00563558604642
216,35.1328736,0.00427128403723
217,35.1328736,0.00309289059542
218,35.1328736,0.00216566343569
219,35.1328736,0.0018411491902
220,35.1328736,0.002166736717
221,35.09264,0.00317039082608
222,35.1328736,0.00473039963755
223,35.1328736,0.00647222225211
224,35.1328736,0.00847843940852
225,35.1328736,0.0103606592891
226,35.1328736,0.011729762467
227,35.1775776,0.0126181909582
228,35.1775776,0.0127497308422
229,35.1775776,0.0120612442734
230,35.226752,0.0105363247218
231,35.226752,0.00822769758021
232,35.271456,0.00547760420797
233,35.226752,0.00191757894664
234,35.1775776,-0.0020521188524
235,35.1328736,-0.00586899238416
236,35.1328736,-0.00996275271074
237,35.1328736,-0.0134677803619
238,35.226752,-0.0168936766781
239,35.31616,-0.0198527200785
240,35.450272,-0.0221532382395
241,35.494976,-0.0242329164699
242,35.53968,-0.0258964122194
243,35.5799136,-0.0270878210541
244,35.5799136,-0.028052848041
245,35.5799136,-0.0286867719395
246,35.53968,-0.0289972763206
247,35.494976,-0.0290223078246
248,35.4010976,-0.0288548420943
249,35.3563936,-0.0285631762221
250,35.31616,-0.0282603883453
251,35.271456,-0.0279989756302
252,35.271456,-0.0277753086663
253,35.271456,-0.0274636252621
254,35.271456,-0.0269649521973
255,35.271456,-0.026159305341
256,35.226752,-0.0250595529112
257,35.1775776,-0.0233816302531
258,35.1328736,-0.0211472622606
259,35.1775776,-0.0183205746206
260,35.1328736,-0.0149243896894
261,35.047936,-0.0111447254485
262,35.003232,-0.0065862096922
263,34.9093536,-0.00190828347739
264,34.779712,0.0022787822339
265,34.6858336,0.00642820955673
266,34.556192,0.00999358364232
267,34.5070176,0.0128179205823
268,34.42208,0.0147168312576
269,34.42208,0.0159786229122
270,34.42208,0.0163448592275
271,34.42208,0.0159930184133
272,34.5070176,0.014878962057
273,34.600896,0.0132971408028
274,34.6858336,0.0110961991909
275,34.779712,0.00874745533183
276,34.9093536,0.00591153820439
277,35.003232,0.00312788687905
278,35.09264,-6.75109564957e-05
279,35.226752,-0.0031087940228
280,35.271456,-0.00647739683744
281,35.3563936,-0.00981647704196
282,35.3563936,-0.0129581129758
283,35.494976,-0.0156764383939
284,35.53968,-0.0175861594126
285,35.5799136,-0.0188276548125
286,35.6246176,-0.0190464851232
287,35.6246176,-0.0181953071458
288,35.494976,-0.0163111413479
289,35.494976,-0.0133443802758
290,35.271456,-0.00986249237907
291,35.1775776,-0.00600907656817
292,35.003232,-0.00215594699997
293,34.824416,0.00127524495122
294,34.7305376,0.00409753388102
295,34.6456,0.00605654212587
296,34.600896,0.00735914165913
297,34.600896,0.00777804840538
298,34.556192,0.00736037123034
299,34.556192,0.00632110769499
300,34.6456,0.00456289376603
301,34.7305376,0.00253673970549
302,34.824416,0.000129560644504
303,34.9540576,-0.00229736582982
304,35.1328736,-0.00441637507971
305,35.271456,-0.00646520640807
306,35.4010976,-0.00818705727493
307,35.450272,-0.00951514799577
308,35.450272,-0.0107321657594
309,35.450272,-0.0117322079007
310,35.31616,-0.0125941643837
311,35.226752,-0.0133847342325
312,35.271456,-0.014118788634
313,35.271456,-0.0148057911311
314,35.271456,-0.0154364368804
315,35.31616,-0.015972150979
316,35.3563936,-0.0163065864306
317,35.3563936,-0.0163601950423
318,35.3563936,-0.015939580998
319,35.4010976,-0.0149077706054
320,35.3563936,-0.0131772663231
321,35.31616,-0.0109327553279
322,35.226752,-0.00780956662393
323,35.1775776,-0.00401640326202
324,35.09264,-0.000134988930504
325,35.003232,0.00417550966086
326,34.9093536,0.0085947115357
327,34.824416,0.0128691884236
328,34.824416,0.016350342346
329,34.6858336,0.0193992915006
330,34.600896,0.0212588848624
331,34.556192,0.0220374691758
332,34.556192,0.0215424530724
333,34.600896,0.0198321962471
334,34.600896,0.0166798552954
335,34.6858336,0.0127730337699
336,34.824416,0.00769127349761
337,34.9540576,0.00211375998202
338,35.09264,-0.00300435696151
339,35.1775776,-0.00822082130025
340,35.09264,-0.0129114712443
341,34.779712,-0.0169305111388
342,34.4623136,-0.0203136570827
343,34.109152,-0.0227133436314
344,33.885632,-0.0244085275099
345,33.75152,-0.0255711577245
346,33.75152,-0.026078952352
347,33.7917536,-0.0261462016165
348,33.885632,-0.0258690815746
349,33.97504,-0.025390221748
350,34.153856,-0.0247758345574
351,34.109152,-0.0240506591762
352,34.153856,-0.0234103428256
353,34.0152736,-0.0228783806966
354,33.8364576,-0.0225301016237
355,33.662112,-0.0224800071434
356,33.438592,-0.0226742450038
357,33.438592,-0.0230825168123
358,33.3894176,-0.0236409380432
359,33.528,-0.024350234964
360,33.75152,-0.0250505906615
361,33.930336,-0.0257408670861
362,34.109152,-0.0264143053167
363,34.2387936,-0.0268355916233
364,34.42208,-0.0269554231557
365,34.4623136,-0.0266438985194
366,34.5070176,-0.0257586768868
367,34.600896,-0.0242295986242
368,34.600896,-0.0221124488403
369,34.600896,-0.0194651158162
370,34.556192,-0.0166754723435
371,34.5070176,-0.0134321663897
372,34.42208,-0.0100851221614
373,34.2834976,-0.00707499172573
374,34.153856,-0.00401377503273
375,34.0599776,-0.0011083271999
376,33.930336,0.00141294368982
377,33.706816,0.00404812033403
378,33.528,0.00634053743392
379,33.3894176,0.0085177742823
380,33.3447136,0.0105398152117
381,33.438592,0.0123614823064
382,33.483296,0.0140754636727
383,33.528,0.0153573593385
384,33.528,0.0162975375717
385,33.438592,0.0168594108611
386,33.3894176,0.0170470762565
387,33.30448,0.0168870275194
388,33.259776,0.0163956488781
389,33.1658976,0.0157637663025
390,33.215072,0.0150731309599
391,33.1658976,0.0144226903823
392,33.1211936,0.013885442649
393,32.991552,0.0135010169757
394,32.85744,0.0132673152894
395,32.7188576,0.0131487485939
396,32.589216,0.0130845839621
397,32.4953376,0.0130173251907
398,32.4104,0.0129122044404
399,32.320992,0.0127593933004
400,32.320992,0.0125648853697
401,32.365696,0.012341207122
402,32.4506336,0.0121259652055
403,32.63392,0.011896002469
404,32.7188576,0.0116960774081
405,32.812736,0.0115627108454
406,32.85744,0.0114946309865
407,32.9423776,0.01147358363
408,32.8976736,0.011437627487
409,32.8976736,0.0112996572699
410,32.85744,0.010970284898
411,32.812736,0.0103253345027
412,32.812736,0.00925494005863
413,32.85744,0.00773384574618
414,32.8976736,0.00596504916169
415,32.991552,0.00367690347078
416,33.08096,0.00110188219512
417,33.1211936,-0.0016564107057
418,33.1658976,-0.00464176008539
419,33.30448,-0.00726926222072
420,33.3447136,-0.00970528929702
421,33.3894176,-0.0117379812828
422,33.483296,-0.0133911394629
423,33.6129376,-0.0143589531729
424,33.8364576,-0.0148613657602
425,34.0757478888,-0.0150073582872
426,34.2387936,-0.0149341927747
427,34.2834976,-0.0147535019955
428,34.2834976,-0.014585660601
429,34.19856,-0.0144753550387
430,34.153856,-0.0144758475304
431,34.19856,-0.0145979144923
432,34.19856,-0.0148146322729
433,34.2387936,-0.0151508945175
434,34.2387936,-0.0155171801945
435,34.2387936,-0.0159144452754
436,34.19856,-0.0163559082144
437,34.153856,-0.0167286955928
438,34.0599776,-0.0170414037165
439,34.0599776,-0.0171689888035
440,34.0152736,-0.017020637053
441,34.0152736,-0.0164577235777
442,34.109152,-0.0153772905602
443,34.19856,-0.0138927400903
444,34.19856,-0.0118029130838
445,34.2387936,-0.00935205394167
446,34.2387936,-0.00700373378836
447,33.97504,-0.00478257500859
448,33.528,-0.00279247783139
449,32.991552,-0.00144796683571
450,32.4953376,-0.000819884968478
451,32.097472,-0.000820028076055
452,31.873952,-0.00142397925626
453,31.918656,-0.0025094269272
454,32.0482976,-0.00377237263895
455,32.2718176,-0.00535450453011
456,32.4953376,-0.00698539934821
457,32.589216,-0.00858924651561
458,32.544512,-0.0100688779456
459,32.544512,-0.0113298031424
460,32.4953376,-0.0124116295472
461,32.4104,-0.0132913898795
462,32.142176,-0.0138514939846
463,32.0035936,-0.0140626069528
464,31.918656,-0.0138894541551
465,31.8247776,-0.0132451434359
466,31.7800736,-0.0122859999595
467,31.7800736,-0.0108592700247
468,31.7800736,-0.00931198655241
469,31.7800736,-0.00748919626159
470,31.7800736,-0.00559923631365
471,31.73984,-0.0037540910064
472,31.650432,-0.00226665458454
473,31.51632,-0.000967099155915
474,31.3330336,-6.17130077559e-05
475,31.1095136,0.00034608169076
476,30.756352,0.000316159850297
477,30.4836576,-0.000140433551947
478,30.4836576,-0.000979613705439
479,30.577536,-0.00210916197351
480,30.62224,-0.00341796220287
481,30.6624736,-0.00494560437853
482,30.6624736,-0.00629276176715
483,30.7071776,-0.00751272737146
484,30.84576,-0.00864639092701
485,30.979872,-0.00947114516912
486,31.06928,-0.0101596822804
487,31.203392,-0.0106174514314
488,31.3777376,-0.0109408115734
489,31.6012576,-0.0110600295303
490,31.918656,-0.0109128079767
491,32.18688,-0.0104881479627
492,32.4104,-0.00955925558498
493,32.544512,-0.00842597810511
494,32.6741536,-0.00671163194139
495,32.812736,-0.00507668503192
496,32.8976736,-0.00323442046528
497,32.9423776,-0.00149783546025
498,33.036256,2.12730435797e-06
499,32.9423776,0.0011898584037
500,32.85744,0.00204263484307
501,32.6741536,0.00257830452873
502,32.4506336,0.00291365053407
503,32.2718176,0.00317404831463
504,32.3564847595,0.00348995738157
505,32.544512,0.00401104825598
506,32.63392,0.0048323917431
507,32.6741536,0.00596007925426
508,32.63392,0.00731239126942
509,32.4506336,0.00876692269202
510,32.365696,0.010219051404
511,32.18688,0.0114682136293
512,32.097472,0.0127097770672
513,32.0035936,0.0138039895122
514,31.873952,0.0147249543086
515,31.7800736,0.0154142681621
516,31.695136,0.0157626355448
517,31.5565536,0.0157276753007
518,31.426912,0.0151276328318
519,31.248096,0.0139973115393
520,31.1542176,0.0123397386158
521,31.024576,0.00999699090777
522,30.84576,0.00744627576717
523,30.756352,0.00461099199837
524,30.62224,0.00137352430211
525,30.577536,-0.00150969432694
526,30.62224,-0.00421536672432
527,30.62224,-0.00657641551189
528,30.6624736,-0.00843990232644
529,30.6624736,-0.00977493120596
530,31.1095136,-0.0103182203725
531,31.471616,-0.0102153599617
532,31.51632,-0.0094003775897
533,31.5565536,-0.00815223507505
534,31.5565536,-0.00638189021551
535,31.650432,-0.00441261195016
536,31.695136,-0.0024460388146
537,31.73984,-0.000764832182175
538,31.918656,0.000867853883347
539,32.0035936,0.00226060584418
540,32.0482976,0.00343542595946
541,32.18688,0.00439366987764
542,32.2718176,0.0054309996648
543,32.4104,0.00667621829773
544,32.4506336,0.00820645406965
545,32.589216,0.0100377037987
546,32.6741536,0.0120745981367
547,32.7188576,0.0142057711677
548,32.768032,0.0162963801442
549,32.812736,0.018441362512
550,32.85744,0.0202258457285
551,32.85744,0.0216571325886
552,32.8976736,0.0226385007313
553,32.8976736,0.0231211151135
554,32.9423776,0.0230359681712
555,32.8976736,0.022358859963
556,32.85744,0.0209631037459
557,32.768032,0.01921230425
558,32.63392,0.0167762112059
559,32.544512,0.0139321728395
560,32.4506336,0.0111558786876
561,32.365696,0.00811324965615
562,32.320992,0.00531586482171
563,32.320992,0.00288788624502
564,32.4104,0.00107910407352
565,32.4953376,-0.000445830706716
566,32.589216,-0.00149717952422
567,32.7188576,-0.00211391160169
568,32.85744,-0.00231575656395
569,33.08096,-0.00217122874572
570,33.259776,-0.0016100921496
571,33.08096,-0.000806356408585
572,32.8976736,0.000300715145984
573,32.8976736,0.00170912242866
574,33.08096,0.00335877197011
575,33.215072,0.00519149296184
576,33.3447136,0.00718914171977
577,33.3894176,0.00929510389331
578,33.438592,0.0116799054783
579,33.3447136,0.0138653950986
580,33.215072,0.0161334320796
581,32.991552,0.0180244260045
582,32.7188576,0.0198225229143
583,32.544512,0.0211535956668
584,32.2718176,0.0221617909603
585,32.097472,0.022876125167
586,31.96336,0.0233206784605
587,32.0482976,0.023482444291
588,32.0482976,0.0233835102891
589,32.0482976,0.0230044484669
590,31.96336,0.0222944249921
591,32.0035936,0.0213786825802
592,32.0035936,0.0200691203816
593,32.097472,0.0183652913871
594,32.18688,0.0165025152305
595,32.320992,0.0140900431014
596,32.4953376,0.011362637881
597,32.6741536,0.00826173181738
598,32.85744,0.00486170871874
599,33.08096,0.00126804687777
600,33.30448,-0.00225408971324
601,33.3894176,-0.00582013646193
602,33.483296,-0.00878871572182
603,33.6129376,-0.0114495481064
604,33.706816,-0.0133046855479
605,34.0152736,-0.0146360387427
606,34.2387936,-0.0150540108421
607,34.5070176,-0.014709078705
608,34.7305376,-0.0136036375272
609,35.003232,-0.011852843279
610,35.1328736,-0.00970721105103
611,35.226752,-0.00735003541305
612,35.271456,-0.00504108034149
613,35.226752,-0.00241464707337
614,35.1775776,0.000310733962509
615,35.1328736,0.00302173400819
616,35.003232,0.00536527166873
617,34.824416,0.00755757524468
618,34.600896,0.00915482935868
619,34.4623136,0.0101119544077
620,34.109152,0.0104466344266
621,34.0152736,0.0102981114605
622,33.885632,0.0098255897766
623,33.75152,0.00910876351445
624,33.6129376,0.00841207646474
625,33.528,0.00775587024423
626,33.30448,0.00734371468717
