time(s),speed(m/s),grade
0,17.21104,-0.0285300344194
1,16.764,-0.0286814901884
2,15.288768,-0.0290035057769
3,14.394688,-0.0293412370967
4,13.5855456,-0.0296351378674
5,13.053568,-0.0300209406185
6,11.84656,-0.0303496558595
7,11.5986855859,-0.0307059438334
8,12.0209056,-0.0310927446781
9,12.2444256,-0.0315053736766
10,12.0209056,-0.0319284715247
11,11.444224,-0.0322340404116
12,10.95248,-0.0325966010593
13,10.50544,-0.0328818366551
14,10.0584,-0.0330329122248
15,9.7410016,-0.0331258199576
16,9.5621856,-0.0331561790838
17,9.030208,-0.0331211213792
18,8.6681056,-0.0330227131434
19,8.806688,-0.0328673819217
20,9.253728,-0.0326649808475
21,9.83488,-0.0323395432248
22,10.550144,-0.0320599085491
23,11.3056416,-0.0316451572239
24,11.9762016,-0.0311823245223
25,12.785344,-0.0306589768214
26,13.63472,-0.0300852291102
27,14.30528,-0.0292971639653
28,15.0160736,-0.0284303325583
29,16.5807136,-0.0274847244299
30,16.8042336,-0.0264614233447
31,16.495776,-0.0251353804192
32,16.0099848886,-0.0239445428018
33,16.629888,-0.0224122521685
34,18.8159136,-0.0210663233876
35,19.848576,-0.0190931747752
36,21.100288,-0.0170588668468
37,22.1687136,-0.0148807799953
38,22.530816,-0.0131798895685
39,22.6060967591,-0.0115728974141
40,22.4816416,-0.0104821460069
41,22.1687136,-0.00953047275455
42,21.90496,-0.00880087404847
43,21.860256,-0.00813143856743
44,22.1687136,-0.00725300980904
45,22.57552,-0.00594524661054
46,23.1522016,-0.00466973516602
47,23.7333536,-0.00319904458475
48,24.229568,-0.00178165114574
49,24.766016,-0.000486021681179
50,25.213056,0.000702619217343
51,25.347168,0.00190474639012
52,25.2979936,0.00282089389276
53,25.3874016,0.00367853727239
54,25.48128,0.00423327709858
55,25.48128,0.00448788657458
56,25.6109216,0.00440512631361
57,25.660096,0.00402554233389
58,25.794208,0.00343876941974
59,25.92832,0.00280652774945
60,26.017728,0.00206467756416
61,26.017728,0.0014598675053
62,26.0579616,0.0009488371446
63,26.6391136,0.000728042822155
64,26.9520416,0.000866235394591
65,27.358848,0.00138919021714
66,27.895296,0.00229156385316
67,28.9190176,0.00368568278135
68,29.5895776,0.00536454485376
69,29.9753744241,0.00709152633724
70,30.22058743,0.00855048131455
71,30.39872,0.00949349110804
72,30.62224,0.00930096126928
73,30.979872,0.00804206745795
74,30.979872,0.00627068413542
75,30.4836576,0.00399187572821
76,29.906976,0.00171631232372
77,29.3660576,-0.000853978080951
78,28.789376,-0.00377915577139
79,28.5166816,-0.00694346478965
80,28.2931616,-0.0103934560646
81,28.118816,-0.0139149254438
82,28.118816,-0.0177285354755
83,28.476448,-0.0221796297946
84,28.83408,-0.0264312439455
85,29.3660576,-0.0292459801313
86,29.9919136,-0.0304937756243
87,30.577536,-0.0304191832849
88,31.024576,-0.0291550568454
89,31.248096,-0.0274035224741
90,31.426912,-0.0247832585642
91,31.695136,-0.0222712765587
92,31.96336,-0.0196854780731
93,31.96336,-0.0176336745817
94,32.7188576,-0.0163502968217
95,33.215072,-0.0162068297948
96,33.75152,-0.0177998940507
97,34.153856,-0.0170818477942
98,34.5070176,-0.01368961248
99,34.779712,-0.00859724808439
100,34.824416,-0.00156778403411
101,34.7305376,0.00531915881544
102,34.42208,0.0122935286705
103,33.930336,0.0173890515936
104,33.215072,0.0205393742555
105,32.4104,0.021718642259
106,31.695136,0.021087109479
107,31.1095136,0.0189752807054
108,30.6624736,0.0158974046453
109,30.354016,0.011798805864
110,29.906976,0.00695117709378
111,29.50464,0.00172766538867
112,29.1425376,-0.00354841600841
113,28.6954976,-0.0085727168146
114,28.342336,-0.0132412138354
115,28.029408,-0.0171955927181
116,27.8461216,-0.0212086369102
117,27.9802336,-0.0244964456303
118,28.118816,-0.0277644178203
119,28.019762562,-0.0303590679021
120,28.0696416,-0.0326190052127
121,28.2071450236,-0.0347469352112
122,28.252928,-0.0363798716068
123,28.16352,-0.0377432833031
124,28.2037536,-0.0386265360348
125,28.16352,-0.0391572284962
126,28.16352,-0.0393667965944
127,28.118816,-0.0391790278305
128,28.0696416,-0.0386698986222
129,27.9802336,-0.0378199461189
130,27.7567136,-0.0364752141234
131,27.5331936,-0.0349106298345
132,27.358848,-0.0330126099147
133,27.0861536,-0.0307785076324
134,26.911808,-0.0282225125264
135,26.330656,-0.0253465447162
136,24.989536,-0.0221505749777
137,24.453088,-0.0190205750986
138,24.2698016,-0.0155694533557
139,24.095456,-0.0119250352189
140,23.871936,-0.00804354507338
141,23.0627936,-0.00407305071345
142,21.547328,-0.000620046756319
143,20.072096,0.00266049010803
144,18.9053216,0.00514921326921
145,17.747488,0.00723182163047
146,16.406368,0.00884665685937
147,15.288768,0.0098088703836
148,14.3455136,0.0104033976777
149,13.7643616,0.0106151734882
150,13.3173216,0.010514379915
151,13.379031248,0.010108083767
152,13.6892631496,0.0096154605127
153,13.7643616,0.00887750297435
154,13.3620256,0.00827146045257
155,12.96416,0.00769032542099
156,12.4679456,0.0070706031886
157,11.9762016,0.00677799644278
158,11.39952,0.006504199257
159,10.8586016,0.00637938994068
160,10.28192,0.00638094913977
161,9.7410016,0.00645077519207
162,9.253728,0.00656276919765
163,8.761984,0.00668526447088
164,8.314944,0.00679224086386
165,7.8232,0.00687574622538
166,7.420864,0.00691974584874
167,6.92912,0.00695779098055
168,6.5670176,0.00700511708901
169,6.6564256,0.00702902569317
170,6.5670176,0.00704592322514
171,6.1199776,0.0070558517181
172,5.7623456,0.00706014241064
173,5.3153056,0.00706077816829
174,5.0917856,0.0070612274446
175,4.4704,0.00706190831217
176,3.12928,0.00706285968406
177,1.6942816,0.0070638771968
178,0.983488,0.0070638771968
179,0.0,0.0070638771968
180,0.0,0.0070638771968
181,0.0,0.0070638771968
182,0.0,0.0070638771968
183,1.207008,0.00706480486127
184,1.65429059192,0.00706559978254
185,1.743456,0.00706559978254
186,1.296416,0.00706621761009
187,1.1176,0.00706621761009
188,1.1578336,0.00706621761009
189,0.983488,0.0070666217451
190,0.8449056,0.0070666217451
191,1.207008,0.0070666217451
192,1.43109863204,0.00706679372739
193,1.3813536,0.00706679372739
194,1.1578336,0.00706680655639
195,0.89408,0.00706680655639
196,0.0,0.00706680655639
197,0.0,0.00706680655639
198,0.0,0.00706680655639
199,0.0,0.00706680655639
200,0.0,0.00706680655639
201,0.0,0.00706680655639
202,0.0,0.00706680655639
203,0.0,0.00706680655639
204,0.0,0.00706680655639
205,0.0,0.00706680655639
206,1.6942816,0.00706676199305
207,2.9459936,0.00706676180883
208,3.4377376,0.00706690886732
209,3.621024,0.00706734602562
210,3.76431726958,0.0070682667529
211,4.1082976,0.00707245878791
212,4.69392,0.00707622367674
213,4.91744,0.00708757754443
214,4.96819173835,0.00710396494876
215,4.7788576,0.00711392822714
216,4.3318176,0.00713718276587
217,4.157472,0.00715053265937
218,4.21159270586,0.00718102412016
219,4.380992,0.00719828665594
220,4.4212256,0.00723648704748
221,3.79984,0.0072571756748
222,3.2142176,0.0072788188888
223,3.12928,0.00730146806839
224,3.039872,0.00732537341235
225,3.2142176,0.00735074316684
226,3.308096,0.00740668627208
227,3.308096,0.00743725130755
228,3.3528,0.00746922608914
229,3.621024,0.00750258189812
230,3.621024,0.00753729791081
231,3.3528,0.0075733533407
232,3.084576,0.00761072793662
233,2.90576,0.00764942226046
234,2.4989536,0.00768946391093
235,2.0966176,0.00773088229361
236,2.145792,0.00773088229361
237,1.922272,0.00777370681376
238,1.654048,0.00781797126413
239,1.0237216,0.00781797126413
240,0.0,0.00781797126413
241,0.0,0.00781797126413
242,0.0,0.00781797126413
243,0.0,0.00781797126413
244,0.0,0.00781797126413
245,0.0,0.00781797126413
246,0.0,0.00781797126413
247,0.0,0.00781797126413
248,0.0,0.00781797126413
249,0.0,0.00781797126413
250,0.0,0.00781797126413
251,0.0,0.00781797126413
252,0.0,0.00781797126413
253,0.0,0.00781797126413
254,0.0,0.00781797126413
255,0.983488,0.00781797126413
256,2.01168,0.00781797126413
257,2.45872,0.00786372698781
258,2.9459936,0.00791102971522
259,3.2142176,0.00795993517648
260,3.9741856,0.00806073339322
261,4.59231420778,0.0081118229426
262,4.738624,0.00821532548993
263,4.4212256,0.00826730147594
264,4.068064,0.00837028986632
265,3.844544,0.00842071274736
266,3.9741856,0.0085180147573
267,4.1977056,0.00856436250697
268,4.515104,0.00865095678122
269,4.962144,0.00869053303553
270,5.3153056,0.00876078162531
271,5.81152,0.00881750491971
272,6.392672,0.00885888510184
273,6.5670176,0.00888304074757
274,6.8799456,0.00888247603402
275,7.01371195256,0.0088549974529
276,6.839712,0.00876808379389
277,6.48208,0.0086774343412
278,6.4329056,0.00855955733915
279,6.7905376,0.0084129208367
280,7.197344,0.00813541643848
281,7.3269856,0.00790433437428
282,7.2822816,0.00749842507204
283,7.37616,0.00719084530293
284,7.9975456,0.00667694160822
285,8.04672,0.00610224947935
286,8.0681195389,0.00568706067197
287,8.4445856,0.00501904763174
288,9.0704416,0.00430052283441
289,9.0704416,0.00353674986517
290,8.806688,0.00273284040209
291,8.4445856,0.00189139151657
292,8.091424,0.00101510934534
293,7.9528416,0.000413164178313
294,7.912608,-0.000510242150561
295,7.7293216,-0.00145155818276
296,7.37616,-0.00209312669245
297,7.1034656,-0.00307649451142
298,6.526784,-0.00374578449067
299,6.4329056,-0.00442586497933
300,6.392672,-0.00511677549914
301,6.079744,-0.00582330030772
302,6.079744,-0.00654528631182
303,6.20956263495,-0.00727750224298
304,6.2093856,-0.00839335505059
305,5.9858656,-0.00914763021418
306,5.856224,-0.00990889361915
307,6.11097348425,-0.0106752696213
308,7.3269856,-0.0114438070844
309,9.5174816,-0.0125956265905
310,10.7485807524,-0.0137393561926
311,11.041888,-0.0152391816732
312,10.997184,-0.0167029222902
313,10.818368,-0.0181279637105
314,10.371328,-0.0191696958135
315,9.924288,-0.0205192361933
316,9.61136,-0.021497146418
317,9.61136,-0.0224413500214
318,9.61136,-0.0233506101452
319,9.656064,-0.0245216835662
320,9.656064,-0.0253615126061
321,9.700768,-0.0261604236344
322,10.2327456,-0.0269135197771
323,10.371328,-0.0278335723359
324,9.83488,-0.0284515259546
325,9.2939616,-0.0290065293691
326,9.0704416,-0.0294974394153
327,8.9408,-0.0299217101435
328,8.761984,-0.030278995114
329,8.71728,-0.0305684500481
330,8.4445856,-0.0307979521657
331,8.1763616,-0.0309757593629
332,7.9528416,-0.0310690237642
333,7.8232,-0.0311746292584
334,7.8232,-0.0312258825898
335,7.8232,-0.0312803973867
336,7.8232,-0.0313132807482
337,7.7293216,-0.0313240963189
338,7.063232,-0.0313232197629
339,5.81152,-0.0313112825314
340,5.32033682657,-0.0312899653067
341,5.498592,-0.0312589585693
342,5.856224,-0.0312206406855
343,6.2093856,-0.0311763306367
344,6.526784,-0.0311242792332
345,6.839712,-0.0310310983427
346,7.2822816,-0.030958944903
347,8.3998816,-0.0308360234216
348,9.253728,-0.0306898151399
349,10.0092256,-0.0304773436946
350,10.2327456,-0.030308149073
351,9.924288,-0.030098785525
352,9.5174816,-0.0299653328493
353,9.209024,-0.0298623145324
354,8.985504,-0.0297735876315
355,8.761984,-0.0297488973874
356,8.583168,-0.0297345811491
357,8.583168,-0.0297447460704
358,8.6234016,-0.0297773503201
359,8.04672,-0.0298296436617
360,7.15264,-0.0298745597011
361,6.839712,-0.0299530254817
362,6.7056,-0.0300099473896
363,6.616192,-0.0300690290148
364,6.71186007426,-0.0301257308711
365,7.1034656,-0.0301789638292
366,7.689088,-0.0302591404562
367,7.867904,-0.0303142026958
368,7.867904,-0.0303988405916
369,7.7293216,-0.0304837851085
370,7.59968,-0.030537623974
371,7.5058016,-0.0306077385805
372,7.37616,-0.0306507293876
373,7.2822816,-0.0307103440591
374,7.15264,-0.0307464432303
375,7.063232,-0.030794737985
376,6.973824,-0.0308228880947
377,6.8799456,-0.0308459967869
378,7.063232,-0.030873237678
379,7.689088,-0.0308885264597
380,7.9975456,-0.0309080956677
381,8.04672,-0.0309187744332
382,7.9528416,-0.0300912316503
383,7.8232,-0.02954953648
384,7.7293216,-0.0291266356665
385,7.0140576,-0.028404859234
386,5.36448,-0.0278875402019
387,2.861056,-0.0276240112138
388,1.3813536,-0.0273516242135
389,0.0,-0.0273516242135
390,0.0,-0.0273516242135
391,0.0,-0.0273516242135
392,0.8449056,-0.0273516242135
393,1.743456,-0.0270705905526
394,2.7671776,-0.0270705905526
395,3.7506656,-0.0264834286982
396,4.1977056,-0.0261777232548
397,4.4212256,-0.0255295438267
398,4.604512,-0.0251868726315
399,4.828032,-0.0244784921202
400,5.4494176,-0.0237409880616
401,6.2093856,-0.0229762734823
402,7.0140576,-0.02218626176
403,7.15264,-0.0209579985002
404,7.5505056,-0.0200667339584
405,8.314944,-0.0186919989061
406,8.9408,-0.0172785904526
407,9.2939616,-0.0158340847923
408,9.477248,-0.0143660604154
409,9.700768,-0.012882097556
410,9.924288,-0.0113897783204
411,10.147808,-0.00941900611527
412,10.326624,-0.00796459076484
413,10.4562656,-0.00605158324209
414,10.773664,-0.00464576974333
415,10.997184,-0.00282355528759
416,11.220704,-0.00107655958218
417,11.39952,0.000578247606782
418,11.39952,0.00174864755085
419,11.39952,0.00320130051856
420,11.712448,0.00447846677553
421,11.9762016,0.00557726956103
422,12.07008,0.00673590461946
423,12.114784,0.00748927238802
424,11.7973856,0.00805354259113
425,11.3503456,0.00855511716633
426,11.444224,0.00850441700655
427,11.667744,0.00879050270936
428,11.5738656,0.00949895945587
429,11.3056416,0.0103001196296
430,10.6797856,0.0116489164295
431,9.5621856,0.012789693714
432,8.761984,0.013955256771
433,8.136128,0.0150964179495
434,7.644384,0.01582373688
435,7.197344,0.0168398053848
436,7.0711676302,0.017463218899
437,7.1034656,0.0180450831787
438,7.04416165385,0.0185920482461
439,6.8799456,0.0193553856063
440,6.7905376,0.0198471551485
441,7.197344,0.0203475649265
442,7.7293216,0.0211437003023
443,8.583168,0.0217272338993
444,9.61136,0.0226936795851
445,10.550144,0.0241160360399
446,11.7973856,0.0252416340125
447,12.830048,0.0270794215793
448,13.7643616,0.0283939852907
449,14.618208,0.0296455753777
450,14.841728,0.0305292715459
451,15.0160736,0.0307818072394
452,14.8819616,0.0308875454249
453,14.6584416,0.0309182255582
454,14.171168,0.0308229021388
455,13.902944,0.0306622714815
456,13.85824,0.0303124163766
457,13.7643616,0.0297951436685
458,13.9878816,0.0288733586668
459,14.484096,0.027688859062
460,14.75232,0.0263384398818
461,15.065248,0.0249211112415
462,15.735808,0.0235759996929
463,16.048736,0.0216667727667
464,16.048736,0.0198571558043
465,15.601696,0.0181096122844
466,15.0160736,0.0165836882986
467,14.8819616,0.0153120117351
468,14.931136,0.0140869932175
469,15.154656,0.0128450766327
470,15.42288,0.0116237257373
471,15.6464,0.0102087537328
472,15.5525216,0.00862681722352
473,15.735808,0.00682585077079
474,16.048736,0.00562961258448
475,16.0764404387,0.00479724289574
476,15.9995616,0.00430311243722
477,16.1336736,0.00418957514792
478,16.5807136,0.0042708582631
479,17.0277536,0.00453807616361
480,17.2939525019,0.00491496387331
481,17.166336,0.00522251775391
482,16.5807136,0.00533274289089
483,15.9995616,0.00522784470633
484,15.42288,0.00511563893733
485,14.841728,0.00503763769283
486,14.2561056,0.00497946073005
487,13.5408416,0.00497704397986
488,12.9149856,0.00500174669173
489,12.4232416,0.00501350146242
490,12.114784,0.00490624942415
491,12.2444256,0.00466885519713
492,12.3433898185,0.00429340238141
493,12.159488,0.00395413243713
494,11.712448,0.00359790262679
495,11.5738656,0.00328022231563
496,11.935968,0.00308649464841
497,12.2936,0.00309562652428
498,12.7196892382,0.00339300628923
499,13.008864,0.0037537766426
500,12.8702816,0.004036268069
501,12.338304,0.00438971784305
502,12.0209056,0.0049175690724
503,12.1997216,0.0056625395911
504,12.51712,0.00664147220531
505,13.053568,0.00780218245506
506,13.5408416,0.00943956409413
507,13.679424,0.010918039773
508,14.0325856,0.0129651824409
509,14.394688,0.0150927456849
510,14.4349216,0.017134742489
511,14.4349216,0.0189425194168
512,14.394688,0.0206376249544
513,14.2561056,0.0217099000302
514,13.85824,0.0225770882003
515,13.679424,0.0230357613204
516,13.500608,0.023315003459
517,13.5408416,0.0235346320259
518,13.9878816,0.0235434530685
519,14.6724237381,0.0234837613818
520,15.3611645557,0.0235159790222
521,15.825216,0.0236540790526
522,15.9101536,0.023893980412
523,15.7760416,0.0242362377146
524,15.5525216,0.0245798950533
525,15.0160736,0.0247326393174
526,14.8819616,0.0247343422847
527,15.378176,0.0247066989094
528,15.9995616,0.0246274263793
529,16.629888,0.0244428095874
530,16.942816,0.0241643105932
531,17.076928,0.0239552770219
532,17.2512736,0.023865046371
533,17.613376,0.0239671053142
534,17.9218336,0.0240581741044
535,18.2347616,0.0240320757673
536,18.4582816,0.023912098112
537,18.730976,0.0237424147621
538,19.312128,0.0236115950501
539,20.206208,0.023685271581
540,21.189696,0.0240388688584
541,21.1823101656,0.02418859267
542,20.742656,0.0240548037177
543,20.6934816,0.023748142454
544,20.876768,0.0232640373082
545,20.9170016,0.022457399927
546,21.189696,0.0214673012658
547,21.860256,0.0204505964259
548,22.083776,0.0195043526996
549,22.12848,0.0190956675731
550,21.994368,0.0195931984821
551,21.90496,0.0204487087349
552,21.9451936,0.0216334146153
553,22.3922336,0.022774909316
554,22.441408,0.0237295371621
555,22.352,0.0241703304701
556,22.1687136,0.0242941440301
557,21.68144,0.0240521611058
558,21.2344,0.0234918220873
559,20.78736,0.0224597162839
560,20.3805536,0.0207447056464
561,20.34032,0.0184349476379
562,20.34032,0.0160417779951
563,19.848576,0.0138026107857
564,19.2629536,0.0118875530782
565,18.8159136,0.00979783108827
566,18.954496,0.00852508535786
567,19.22272,0.00779129293324
568,19.1288416,0.00759530401765
569,19.178016,0.007576614127
570,19.66976,0.00770695944639
571,19.752132019,0.00779975953137
572,19.3523616,0.00780100005573
573,18.730976,0.00779564100378
574,18.2347616,0.00778486143858
575,17.836896,0.00767027502084
576,17.4747936,0.00755524675946
577,16.942816,0.00766272339626
578,16.54048,0.00790271321984
579,16.54048,0.00811605594872
580,16.764,0.0083941581731
581,17.4747936,0.00875292158513
582,17.836896,0.00889462957365
583,18.507456,0.00877099753766
584,19.0394336,0.00853623968205
585,19.4864736,0.00828564469316
586,19.625056,0.00797691994856
587,19.66976,0.00777787569919
588,19.759168,0.00777098754141
589,19.7994016,0.0078263607624
590,19.7099936,0.00794622211482
591,19.401536,0.00801492370229
592,19.2629536,0.00803276276966
593,19.535648,0.00782726797135
594,19.848576,0.00739386997993
595,20.1570336,0.00690436710142
596,20.206208,0.00656523304495
597,19.848576,0.00658396446799
598,19.44624,0.00700168882847
599,19.0394336,0.00767448250167
600,18.77568,0.00825738969513
601,18.641568,0.00894277210891
602,18.507456,0.00982489948246
603,18.32864,0.0111655061253
604,18.060416,0.0130160237019
605,17.21104,0.0151111399547
606,15.825216,0.0170202999297
607,15.0160736,0.0182988535357
608,14.394688,0.0193096283843
609,14.08176,0.0199689688696
610,14.394688,0.0203067363413
611,15.1054816,0.0203506781414
612,15.9101536,0.0200945493989
613,16.98752,0.01956885725
614,17.523968,0.0188734359251
615,18.060416,0.0181440799614
616,18.6818016,0.0174087991188
617,19.401536,0.016833412046
