time(s),speed(m/s),grade
0,18.060416,0.0123697945224
1,18.507456,0.0144749327502
2,19.088608,0.0165269659806
3,19.5758816,0.0188213936866
4,20.072096,0.0209553321608
5,20.429728,0.0229064195083
6,20.519136,0.0244243179899
7,20.072096,0.025992952416
8,19.4864736,0.0273261943966
9,19.178016,0.0283870288091
10,19.401536,0.0290872452935
11,19.7099936,0.0296844589707
12,19.7994016,0.0300438867374
13,20.1570336,0.0301506807834
14,20.519136,0.0300411652611
15,20.9170016,0.0296821592193
16,21.547328,0.0290726697177
17,22.2581216,0.028081957709
18,22.9286816,0.0269597993828
19,23.648416,0.0253945203463
20,24.2698016,0.0235498733741
21,24.9403616,0.0214611986607
22,25.570688,0.0191715489178
23,26.1920736,0.0164050312926
24,26.688288,0.0135028592106
25,26.9520416,0.0105448208646
26,27.04592,0.00761172373997
27,27.26944,0.00477284473712
28,27.49296,0.00212066725042
29,27.582368,-0.000307419234595
30,27.8461216,-0.00270588026199
31,27.895296,-0.00453238615621
32,27.895296,-0.00620643206652
33,27.9802336,-0.00744568467446
34,28.0696416,-0.00849778073177
35,28.2037536,-0.00918225457126
36,28.252928,-0.00969888903372
37,28.252928,-0.00999724088614
38,28.2037536,-0.0101734716184
39,28.16352,-0.0102622327117
40,28.16352,-0.0102773839121
41,28.118816,-0.0102489946819
42,28.2037536,-0.0102004150193
43,28.118816,-0.0101253734291
44,28.252928,-0.0100400741522
45,28.565856,-0.00992524838361
46,28.6954976,-0.00979401490361
47,28.8743136,-0.00965582101569
48,28.968192,-0.00951161559553
49,29.0978336,-0.00937607030545
50,29.191712,-0.009226697591
51,29.236416,-0.00908018033358
52,29.3213536,-0.00893340383036
53,29.415232,-0.00879766457424
54,29.5448736,-0.00869690843644
55,29.683456,-0.00861748880071
56,29.8130976,-0.00858110577516
57,29.906976,-0.0086030263148
58,29.9919136,-0.00870242174985
59,30.085792,-0.00889870030904
60,30.1752,-0.00921795016536
61,30.2154336,-0.00969256169488
62,30.2601376,-0.0103569376401
63,30.2601376,-0.0112406746375
64,30.2154336,-0.0123672328284
65,30.1752,-0.0137432388601
66,30.130496,-0.0153471322407
67,30.0366176,-0.0171369233323
68,30.085792,-0.0190241185337
69,30.1752,-0.0209319884369
70,30.1752,-0.0227595292997
71,30.2154336,-0.0244092036351
72,30.2416287381,-0.025817253294
73,30.2376545075,-0.0269992832735
74,30.2154336,-0.0279465474401
75,30.2154336,-0.0286595456972
76,30.309312,-0.0273836565818
77,30.354016,-0.02617976631
78,30.4389536,-0.0242767054477
79,30.577536,-0.0221003745576
80,30.756352,-0.0195751257076
81,31.024576,-0.016771324243
82,31.203392,-0.0137633099177
83,31.3777376,-0.0102918969517
84,31.426912,-0.00707871009017
85,31.426912,-0.0038947972923
86,31.3330336,-0.000663969137486
87,31.1095136,0.00255183064817
88,30.84576,0.00461565002677
89,30.532832,0.00565549472974
90,30.130496,0.00550956183771
91,29.8130976,0.00519853261616
92,29.5448736,0.00542335645565
93,29.3213536,0.00576042779938
94,29.191712,0.0057780021097
95,29.191712,0.00544120937745
96,29.191712,0.00503717721924
97,29.236416,0.00462813194834
98,29.28112,0.00457434199013
99,29.415232,0.00490109298885
100,29.5895776,0.00536786445832
101,29.72816,0.00562466542418
102,29.862272,0.00546083165202
103,29.906976,0.00514691950018
104,29.95168,0.00504630076244
105,30.130496,0.00520510370821
106,30.309312,0.00542609166273
107,30.39872,0.00555555841587
108,30.354016,0.00552122163124
109,30.2154336,0.0053772371697
110,30.130496,0.00522196618487
111,30.0366176,0.00521026523211
112,29.9919136,0.005320601472
113,29.9919136,0.00522619871838
114,29.95168,0.00500561926745
115,29.906976,0.00482690048699
116,29.7683936,0.00469502624397
117,29.683456,0.00464210188016
118,29.5448736,0.00495982377804
119,29.50464,0.0058424659626
120,29.50464,0.00709864805573
121,29.5448736,0.00891879510569
122,29.5448736,0.0109654978049
123,29.415232,0.0134423101402
124,29.3213536,0.0159498653531
125,29.1425376,0.0181702796326
126,29.012896,0.0205393138203
127,28.968192,0.0228666980949
128,29.0978336,0.0246766946749
129,29.191712,0.0261577435891
130,29.236416,0.0268854391532
131,29.28112,0.0268659499368
132,29.236416,0.0265541740598
133,29.1425376,0.026378209818
134,29.0978336,0.0262816978484
135,29.0978336,0.0263654336518
136,29.1425376,0.026787310989
137,29.191712,0.0273723739005
138,29.236416,0.0282510223123
139,29.28112,0.0297347066638
140,29.28112,0.031489600269
141,29.28112,0.0323153163037
142,29.1425376,0.0319988742876
143,29.1425376,0.0308726057917
144,29.0576,0.0293459651629
145,28.968192,0.027838964956
146,28.744672,0.0265235410118
147,28.476448,0.0255953289533
148,28.2037536,0.0245498453638
149,28.029408,0.0230187761359
150,27.895296,0.0213030688736
151,27.805888,0.0192188475974
152,27.805888,0.0168055572381
153,27.7567136,0.0138916718048
154,27.805888,0.0112046932692
155,27.805888,0.00851330078309
156,27.71648,0.00549374179831
157,27.671776,0.00272200215117
158,27.7567136,-0.000121858247277
159,27.8461216,-0.00316947386006
160,27.671776,-0.0066089247791
161,27.5331936,-0.00954713278441
162,27.6226016,-0.012255607319
163,27.94,-0.0141763539983
164,28.2037536,-0.0147912044183
165,28.4272736,-0.0136654342762
166,28.565856,-0.0114187350326
167,28.6507936,-0.00876729699384
168,28.6954976,-0.00705476547098
169,28.789376,-0.00640166119114
170,28.83408,-0.00688082885448
171,28.8743136,-0.0084281340048
172,28.83408,-0.0104473144456
173,28.83408,-0.0129986205607
174,28.83408,-0.0152187212871
175,28.789376,-0.0175815390322
176,28.744672,-0.0200095446252
177,28.565856,-0.0222446814291
178,28.5166816,-0.0244103339204
179,28.61056,-0.0267348700139
180,28.5166816,-0.0286315682417
181,28.5166816,-0.0301926387806
182,28.61056,-0.0308417787652
183,28.565856,-0.0308044047737
184,28.4272736,-0.0303280670798
185,28.2037536,-0.02967868665
186,28.029408,-0.029067962112
187,28.118816,-0.0289573506165
188,28.16352,-0.0291333820907
189,28.0696416,-0.0294763349944
190,27.94,-0.0297212757713
191,28.0696416,-0.0299020016525
192,28.252928,-0.0299681429269
193,28.38704,-0.0297332039199
194,28.2931616,-0.0291073477829
195,28.342336,-0.0279741184881
196,28.4272736,-0.0266114929377
197,28.61056,-0.0250528838426
198,28.744672,-0.0232735405447
199,28.9190176,-0.0216537334778
200,29.012896,-0.0197674881983
201,29.0978336,-0.0179214129107
202,29.1425376,-0.0164930441656
203,29.0576,-0.0152555217651
204,29.012896,-0.0144003381151
205,28.9190176,-0.0137951890963
206,28.6954976,-0.013369020824
207,28.6507936,-0.0128494818417
208,29.0576,-0.012509415532
209,29.236416,-0.0118729298522
210,29.3660576,-0.010951016014
211,29.459936,-0.00991205961659
212,29.50464,-0.00850774292363
213,29.50464,-0.00691977601873
214,29.459936,-0.00541696178858
215,29.415232,-0.00394045474484
216,29.3213536,-0.00228854256112
217,29.236416,-0.000469503275527
218,29.3213536,0.00114766738397
219,29.459936,0.00270955150197
220,29.50464,0.00380517492635
221,29.5895776,0.00467027280606
222,29.683456,0.00506675963411
223,29.7683936,0.00504708091462
224,29.862272,0.00490826357127
225,29.9919136,0.00476854788846
226,30.130496,0.00468887196172
227,29.9919136,0.00461848216807
228,29.638752,0.00451630463246
229,29.415232,0.00433362775678
230,29.3024164063,0.00437873553085
231,29.2601522979,0.00488158983465
232,29.2719584405,0.00511270352658
233,29.3213536,0.00500347368364
234,29.3660576,0.00539307681019
235,29.3213536,0.00669488681801
236,29.28112,0.00896395748123
237,29.236416,0.0118451819203
238,29.1425376,0.0151903757301
239,29.0978336,0.0188406482156
240,29.0978336,0.0225774407593
241,28.8743136,0.0263166495843
242,28.83408,0.0296754104249
243,28.8743136,0.0330718191043
244,28.83408,0.0358732526027
245,28.789376,0.0377030856042
246,28.744672,0.0391457247425
247,28.6954976,0.0401021387833
248,28.565856,0.0405758415026
249,28.4272736,0.0407528049216
250,28.252928,0.0407139522003
251,28.16352,0.0404597712204
252,28.0696416,0.0397142850651
253,27.9802336,0.0381724342255
254,27.8461216,0.035688632785
255,27.7567136,0.0320366783852
256,27.71648,0.0282282930115
257,27.71648,0.0240923353726
258,27.7567136,0.0197934629261
259,27.8461216,0.0149624833077
260,27.94,0.0108114017025
261,28.118816,0.00675299846421
262,28.252928,0.0022822369049
263,28.38704,-0.00190138936211
264,28.2931616,-0.00657673858811
265,28.029408,-0.0105314357679
266,28.2931616,-0.0143747579354
267,28.61056,-0.0172733438268
268,28.565856,-0.019728772911
269,28.61056,-0.0218349496673
270,28.744672,-0.0241914352534
271,28.6507936,-0.0266912170168
272,28.61056,-0.0289797351794
273,28.5166816,-0.0308062891888
274,28.565856,-0.032538053283
275,28.6954976,-0.0344859513794
276,28.83408,-0.0361303053247
277,28.968192,-0.0376760542851
278,29.0978336,-0.0387201769136
279,29.3213536,-0.0391621205675
280,29.50464,-0.0388024386583
281,29.5895776,-0.0369946949192
282,29.72816,-0.0332185906388
283,29.906976,-0.0279107188434
284,29.9919136,-0.0219395322227
285,29.9919136,-0.0156993864071
286,30.0366176,-0.00935965873644
287,30.130496,-0.00385696629307
288,30.2601376,0.00199255371443
289,30.62224,0.0081530050506
290,30.979872,0.013739633899
291,31.2928,0.0191555991861
292,31.3777376,0.024514377304
293,31.3777376,0.0281225764433
294,31.2928,0.0301371108285
295,31.203392,0.0304850335747
296,31.1095136,0.0295999316323
297,30.979872,0.0275165825176
298,30.801056,0.0241262701961
299,30.6624736,0.0204716439625
300,30.532832,0.0163520734798
301,30.4389536,0.0121406722806
302,30.354016,0.00868817470341
303,30.2154336,0.00512645800141
304,29.8860994373,0.00132653465496
305,29.4704080296,-0.00275818466414
306,29.1425376,-0.0065291779094
307,28.968192,-0.010882446914
308,28.6954976,-0.0154401436124
309,28.38704,-0.0194206529084
310,28.118816,-0.0228977418101
311,28.0696416,-0.025705164224
312,28.029408,-0.0270627914531
313,27.8461216,-0.0274973936648
314,27.671776,-0.0268832364899
315,27.671776,-0.0250862731974
316,27.805888,-0.0214298671643
317,28.0696416,-0.0172512250692
318,28.252928,-0.0129204264386
319,28.342336,-0.00814313144388
320,28.252928,-0.00402796907173
321,28.16352,0.000192268862386
322,28.2037536,0.00356076280575
323,28.252928,0.00655876576238
324,28.2931616,0.00838972338919
325,28.342336,0.00930246642564
326,28.38704,0.00963036364637
327,28.4272736,0.00973574946491
328,28.4272736,0.00982834792734
329,28.38704,0.00997038822347
330,28.38704,0.0101932150829
331,28.38704,0.0103018635998
332,28.342336,0.00977817846317
333,28.252928,0.00831841230218
334,28.2037536,0.00563138944132
335,28.252928,0.00264215448477
336,28.252928,-0.000886016667705
337,28.342336,-0.00401740191959
338,28.38704,-0.00705607381417
339,28.5166816,-0.00884816205815
340,28.83408,-0.010017408944
341,29.0978336,-0.0103415235306
342,29.3213536,-0.0102612778374
343,29.5448736,-0.0102018336815
344,29.638752,-0.0101217892764
345,29.50464,-0.0100076503001
346,29.3660576,-0.00978035807327
347,29.28112,-0.00957184465884
348,29.0978336,-0.00969910453441
349,28.968192,-0.00988051840453
350,28.8743136,-0.00992632987279
351,28.789376,-0.00991037287872
352,28.744672,-0.009965641532
353,28.6507936,-0.0101968765991
354,28.61056,-0.0104852876694
355,28.5166816,-0.0106817264439
356,28.4272736,-0.0104471382019
357,28.38704,-0.00983092813288
358,28.2931616,-0.00941921898373
359,28.252928,-0.00951460636127
360,28.342336,-0.00994212330353
361,28.476448,-0.0103259936409
362,28.565856,-0.0104407762369
363,28.6954976,-0.0102629985726
364,28.744672,-0.00983119970202
365,28.8743136,-0.00902455491748
366,28.83408,-0.00768054922525
367,28.8695635324,-0.00600917908811
368,28.9705335363,-0.00411832825705
369,29.012896,-0.00223132070778
370,28.9190176,0.000393683815765
371,28.789376,0.00310284961556
372,28.744672,0.00534936159484
373,28.83408,0.00709782952167
374,28.8743136,0.0085347574106
375,28.9190176,0.0102248973541
376,28.968192,0.0120941851618
377,29.1425376,0.0138574777688
378,29.3213536,0.014982076655
379,29.459936,0.0155562533328
380,29.638752,0.0156543899361
381,29.7683936,0.0155457167225
382,29.862272,0.0154569615401
383,29.7683936,0.0154027122976
384,29.72816,0.01530424569
385,29.7683936,0.0150763833698
386,29.906976,0.0149743274635
387,30.0366176,0.0150995538025
388,29.9919136,0.0150111524953
389,29.906976,0.0143294478032
390,29.906976,0.0127142760692
391,29.95168,0.0101719332462
392,29.9919136,0.00691416091816
393,29.9919136,0.00328292848494
394,29.862272,-0.000595988142934
395,29.459936,-0.00455069937234
396,29.191712,-0.00833238998547
397,29.012896,-0.0116830663324
398,28.83408,-0.0153082556532
399,28.744672,-0.0189429656385
400,28.789376,-0.0224134629653
401,29.012896,-0.0249467967853
402,29.236416,-0.0269526313079
403,29.3213536,-0.0283248588793
404,29.3660576,-0.0290828809981
405,29.459936,-0.029620532083
406,29.459936,-0.0299556229216
407,29.50464,-0.0301515067958
408,29.5448736,-0.0302030197763
409,29.638752,-0.0301107571309
410,29.72816,-0.0299403015287
411,29.8130976,-0.0297998109849
412,29.95168,-0.0298608851681
413,29.9919136,-0.0300191092246
414,29.9919136,-0.0300561114805
415,29.9919136,-0.0299827962632
416,29.95168,-0.0300038573989
417,30.085792,-0.0300994279127
418,30.2154336,-0.0303689830189
419,30.309312,-0.0308643723556
420,30.39872,-0.0312213076274
421,30.532832,-0.0310585343159
422,30.7071776,-0.029615239185
423,30.756352,-0.0265463042857
424,30.7071776,-0.0215903944628
425,30.7071776,-0.0155929486477
426,30.6624736,-0.00983810350919
427,30.577536,-0.00466458698843
428,30.4836576,-0.000553283899685
429,30.4389536,0.00265708631535
430,30.354016,0.00574741824855
431,30.354016,0.00819435208385
432,30.354016,0.00869320733232
433,30.2154336,0.00762286714922
434,30.085792,0.00656349346034
435,29.95168,0.00600638813331
436,29.906976,0.00573636484792
437,29.906976,0.00574560794064
438,29.8130976,0.00584947839156
439,29.7683936,0.00593259714958
440,29.683456,0.00601089797857
441,29.683456,0.00602209000242
442,29.72816,0.00588347884656
443,29.683456,0.00560427919648
444,29.72816,0.00536925998905
445,29.72816,0.00516753262651
446,29.7683936,0.00510009724599
447,29.8130976,0.00530940904477
448,29.906976,0.00614510533528
449,30.085792,0.00765986703765
450,30.2601376,0.00988587057763
451,30.4836576,0.0130289932928
452,30.577536,0.0167143328456
453,30.62224,0.0203367274617
454,30.577536,0.0231796914719
455,30.4836576,0.0250570894165
456,30.4836576,0.0259140503155
457,30.4836576,0.0260104212152
458,30.39872,0.0257675930508
459,30.309312,0.0258601762765
460,30.2601376,0.026209583709
461,30.1752,0.0263198385492
462,30.130496,0.0260743929461
463,30.0366176,0.0253280623887
464,29.862272,0.0241486159495
465,29.72816,0.0225749828799
466,29.5895776,0.0209005959101
467,29.638752,0.0194939058981
468,29.862272,0.0180931909785
469,30.085792,0.0165511267314
470,30.2154336,0.0139465452137
471,30.309312,0.0106924585978
472,30.354016,0.00772539128946
473,30.39872,0.00513471320048
474,30.354016,0.0026978815476
475,30.2154336,0.00026900627544
476,30.0366176,-0.00208282799108
477,29.906976,-0.00429136495822
478,29.862272,-0.00646688537457
479,29.72816,-0.0087048556476
480,29.5895776,-0.0109047590174
481,29.50464,-0.0130627652487
482,29.4536028301,-0.0151934476823
483,29.4558860155,-0.0172575433849
484,29.5448736,-0.0191829399076
485,29.683456,-0.0209722407731
486,29.683456,-0.0230939809947
487,29.72816,-0.0253811771145
488,29.8130976,-0.0276167073311
489,29.906976,-0.0292921313945
490,30.0366176,-0.0300993421598
491,30.130496,-0.0302580423226
492,30.2154336,-0.0301654554956
493,30.2601376,-0.0300198277916
494,30.309312,-0.0299788917873
495,30.354016,-0.0300247480499
496,30.2154336,-0.0300842223578
497,29.9919136,-0.030090789764
498,29.862272,-0.0301119177044
499,29.72816,-0.0299662387273
500,29.5895776,-0.0297741391621
501,29.3660576,-0.0298948851575
502,29.236416,-0.030260776345
503,29.191712,-0.0304626153087
504,29.0978336,-0.0303762304408
505,29.0978336,-0.030122783937
506,29.236416,-0.0297148123624
507,29.415232,-0.0290528361051
508,29.5448736,-0.028030745423
509,29.5448736,-0.0268358375899
510,29.5895776,-0.0256670058227
511,29.5895776,-0.0247734873087
512,29.5895776,-0.0240897701142
513,29.459936,-0.0238137170462
514,29.3660576,-0.0239347167455
515,29.28112,-0.0241933454375
516,29.1425376,-0.0243144909786
517,29.0576,-0.0242807456597
518,29.0978336,-0.0240615667194
519,29.191712,-0.0238468022358
520,29.28112,-0.023939747171
521,29.415232,-0.0241237668386
522,29.50464,-0.0244208885641
523,29.5448736,-0.0248218565559
524,29.5895776,-0.0248099972527
525,29.638752,-0.0235156352362
526,29.638752,-0.0208024886998
527,29.459936,-0.0160146549504
528,29.415232,-0.00981574396405
529,29.3660576,-0.00322252900177
530,29.3660576,0.00239490679233
531,29.3660576,0.00634789437233
532,29.3213536,0.00997881255925
533,29.236416,0.0128235040769
534,29.191712,0.0151883480316
535,29.1425376,0.0169513142779
536,29.0978336,0.0181204718124
537,29.0978336,0.0186682290104
538,29.1425376,0.0186995168712
539,29.191712,0.0181518096301
540,29.28112,0.01719029513
541,29.28112,0.0160068239507
542,29.236416,0.0150540270844
543,29.1425376,0.0145180098509
544,29.0576,0.0143722879042
545,29.012896,0.0144631813073
546,29.0576,0.0147238918312
547,29.1425376,0.0149940637017
548,29.236416,0.0150815537745
549,29.3660576,0.0148705007621
550,29.459936,0.0142961643606
551,29.5448736,0.0134503295957
552,29.638752,0.0124061361485
553,29.638752,0.0113429837778
554,29.683456,0.0104034713845
555,29.683456,0.00968572304076
556,29.7683936,0.00934137022952
557,29.683456,0.00942775828823
558,29.3213536,0.00978910243603
559,29.1425376,0.0101106159445
560,28.968192,0.0102895257204
561,28.83408,0.0102629613394
562,28.744672,0.0100713336379
563,28.744672,0.0098424139297
564,28.6954976,0.00969963299877
565,28.744672,0.00964653846417
566,28.6954976,0.009743371197
567,28.6954976,0.00985855502941
568,28.6507936,0.00997130464049
569,28.61056,0.0100366226591
570,28.61056,0.0100341660161
571,28.565856,0.00999525498633
572,28.5166816,0.00995458983597
573,28.5166816,0.00988477942383
574,28.5166816,0.00969783209248
575,28.565856,0.00952087395294
576,28.5166816,0.00946066838461
577,28.5166816,0.00985351099346
578,28.5166816,0.0109483415057
579,28.476448,0.013229388482
580,28.342336,0.0162986811027
581,28.118816,0.0202387447087
582,27.9802336,0.0235802383811
583,27.8461216,0.0264508784924
584,27.805888,0.0285723035188
585,27.7567136,0.0299593185981
586,27.7567136,0.0307387315642
587,27.805888,0.030874725402
588,27.8461216,0.0307420081753
589,27.895296,0.0304912224295
590,27.895296,0.0302776283912
591,27.9802336,0.0301892074554
592,28.0696416,0.0301608397705
593,28.2037536,0.0301128568793
594,28.2931616,0.0300333017303
595,28.4272736,0.0300348287869
596,28.5166816,0.0300536638893
597,28.61056,0.030072598297
598,28.6507936,0.0300764812681
599,28.6507936,0.0300521646055
600,28.61056,0.0298806829161
601,28.5166816,0.0295459273722
602,28.029408,0.0293078711262
603,27.448256,0.0294100468638
604,26.59888,0.0297729532141
605,25.570688,0.0300341135865
606,24.676608,0.0301526102549
607,23.91664,0.0302241753988
608,22.79904,0.0302560238534
609,21.547328,0.0303088764718
610,20.6040736,0.0304211523296
611,19.2629536,0.0305492981441
612,18.5923936,0.0306261531258
613,18.1453536,0.0305522749661
614,17.613376,0.0303448214586
615,17.1171616,0.0298261902669
616,16.5807136,0.0291208556037
617,16.2678901451,0.0279626893907
618,16.406368,0.0267449275999
619,16.8936416,0.025015554203
620,16.764,0.0230255612575
621,16.09344,0.021191586407
622,15.601696,0.0192502755303
623,15.19936,0.0171987367979
624,14.0325856,0.0150563869112
625,12.561824,0.0132916620496
626,11.265408,0.0115007771123
