time(s),speed(m/s),grade
0,14.40206416,-0.0029914694152
1,14.488700512,-0.00399362380059
2,14.568720672,-0.00682050966634
3,14.64905376,-0.00803703454485
4,14.743245088,-0.00958299410601
5,14.779231808,-0.00928255030105
6,14.414491872,-0.00869720782035
7,13.755733728,-0.00699319920579
8,13.158756512,-0.00604444280853
9,12.361594784,-0.0050650710107
10,11.427147072,-0.00253845703086
11,10.33534128,-0.00125715363197
12,9.094939392,0.000144284704657
13,7.949801728,0.00172246728206
14,6.88799232,0.00172246728206
15,5.962977152,0.00358398171929
16,5.026696576,0.00358398171929
17,4.033597216,0.00594408539694
18,2.930436608,0.00594408539694
19,1.909486656,0.00594408539694
20,1.1880088,0.00594408539694
21,0.887553216,0.0091194418508
22,0.67883024,0.0091194418508
23,0.51901344,0.0091194418508
24,0.2037697728,0.0091194418508
25,0.1026984992,0.0091194418508
26,0.0834310752,0.0091194418508
27,0.0815982112,0.0091194418508
28,0.0809008288,0.0091194418508
29,0.05576824,0.0091194418508
30,0.071034656,0.0091194418508
31,0.0519996928,0.0091194418508
32,0.0751161312,0.0091194418508
33,0.0839496416,0.00594408539694
34,0.056930544,0.00594408539694
35,0.0466128608,0.00594408539694
36,0.0537207968,0.00594408539694
37,0.0509133856,0.00594408539694
38,0.0636540256,0.00594408539694
39,0.04365300896,0.00594408539694
40,0.1769205504,0.00594408539694
41,0.556609504,0.0091194418508
42,1.163019264,0.0091194418508
43,1.938946592,0.0091194418508
44,2.914969024,0.0091194418508
45,4.147055968,0.0133596301055
46,5.526621408,0.0133596301055
47,6.912847744,0.0188310104414
48,8.196567808,0.0255565538766
49,9.225698592,0.0358489272601
50,10.03873024,0.0436247572227
51,10.429398496,0.0568840138463
52,10.150356128,0.0631818168274
53,8.98840976,0.0666063246432
54,7.605178592,0.0666063246432
55,6.217566432,0.0689884160303
56,4.698479808,0.0689884160303
57,2.979923936,0.0703488398647
58,1.37308336,0.0703488398647
59,0.535509216,0.0703488398647
60,0.234941872,0.0703488398647
61,0.1256584736,0.0703488398647
62,0.0728630496,0.0703488398647
63,0.1632098336,0.0703488398647
64,0.56796432,0.0703488398647
65,1.211567808,0.0703488398647
66,2.07627728,0.0703488398647
67,3.276892608,0.0702214558508
68,4.390245728,0.0702214558508
69,5.484152608,0.0671211237687
70,6.391017952,0.0630532010546
71,7.28719904,0.0630532010546
72,8.08538896,0.0580058895273
73,8.699711328,0.0523788894304
74,9.039327616,0.0466191330097
75,9.039238208,0.0393156844801
76,8.528047968,0.0344670607668
77,7.39895904,0.0302127109966
78,6.24380768,0.0302127109966
79,5.216867392,0.0263339887404
80,4.216749504,0.0263339887404
81,3.04456592,0.0226537613659
82,1.73205648,0.0226537613659
83,0.73068688,0.0226537613659
84,0.3039559072,0.0226537613659
85,0.160308544,0.0226537613659
86,0.1109642688,0.0226537613659
87,0.0479092768,0.0226537613659
88,0.02935130528,0.0226537613659
89,0.03607702208,0.0226537613659
90,0.02483173088,0.0226537613659
91,0.02882469216,0.0226537613659
92,0.03587585408,0.0226537613659
93,0.04409468448,0.0226537613659
94,0.03618252352,0.0226537613659
95,0.03868639456,0.0226537613659
96,0.02030276864,0.0226537613659
97,0.01328066432,0.0226537613659
98,0.01612428576,0.0226537613659
99,0.02549871456,0.0226537613659
100,0.1893259104,0.0226537613659
101,0.3928095776,0.0226537613659
102,0.589332832,0.0226537613659
103,0.83015328,0.0226537613659
104,1.076874656,0.0226537613659
105,1.32033264,0.0226537613659
106,1.52932384,0.0226537613659
107,1.708631584,0.0190482025886
108,1.801973536,0.0190482025886
109,1.82660544,0.0190482025886
110,1.731028288,0.0190482025886
111,1.56464,0.0190482025886
112,1.401649216,0.0154602038426
113,1.239910144,0.0154602038426
114,0.973697824,0.0154602038426
115,0.706233792,0.0154602038426
116,0.52393088,0.0154602038426
117,0.3741858912,0.0154602038426
118,0.2617285088,0.0154602038426
119,0.1552301696,0.0154602038426
120,0.070341744,0.0154602038426
121,0.0462105248,0.0154602038426
122,0.0480433888,0.0154602038426
123,0.0294018208,0.0154602038426
124,0.03057038336,0.0154602038426
125,0.03101697632,0.0154602038426
126,0.03118729856,0.0154602038426
127,0.0312525664,0.0154602038426
128,0.03680301504,0.0154602038426
129,0.03892332576,0.0154602038426
130,0.0397329152,0.0154602038426
131,0.04004226688,0.0154602038426
132,0.045687488,0.0154602038426
133,0.04231635936,0.0154602038426
134,0.02721490112,0.0154602038426
135,0.03526072704,0.0154602038426
136,0.03833412704,0.0154602038426
137,0.03950805408,0.0154602038426
138,0.0399564352,0.0154602038426
139,0.04012765152,0.0154602038426
140,0.07610856,0.0154602038426
141,0.449006976,0.0154602038426
142,1.086038976,0.0154602038426
143,1.928888192,0.0119142985797
144,3.074159968,0.0119142985797
145,4.357030656,0.00740883235224
146,5.662074528,0.00740883235224
147,6.989425696,0.00402083906987
148,8.156781248,0.000491121993756
149,8.881701312,-0.00318746757265
150,8.644680704,-0.00702176684486
151,7.733613184,-0.0112602769973
152,6.805379328,-0.0112602769973
153,6.437063072,-0.0164324456351
154,6.381987744,-0.0225847899947
155,6.189671136,-0.0225847899947
156,5.64097424,-0.0285441599051
157,5.028037696,-0.0285441599051
158,4.564591328,-0.0335265716843
159,4.227344352,-0.0335265716843
160,3.987999136,-0.0372633520998
161,3.810926592,-0.0381562153942
162,3.64382304,-0.0381562153942
163,3.129637632,-0.0395324525783
164,2.543702304,-0.0395324525783
165,2.201090848,-0.0395324525783
166,2.32438448,-0.0393198591038
167,2.816307296,-0.0393198591038
168,3.62862368,-0.0393198591038
169,4.889321184,-0.0385294634905
170,6.45391648,-0.0377594751749
171,7.780910016,-0.0372063576284
172,8.856935296,-0.0368592743441
173,9.817758368,-0.0362910784211
174,10.610226176,-0.0356210243457
175,11.117393056,-0.0348186847492
176,11.167416832,-0.0338750930862
177,10.675404608,-0.0328040546639
178,9.95423968,-0.0310439640561
179,9.322393344,-0.0293430048262
180,8.536720544,-0.0270740026751
181,7.272402016,-0.0241250228958
182,5.811430592,-0.0241250228958
183,4.352694368,-0.0204507549822
184,2.69587472,-0.0204507549822
185,1.178933888,-0.0204507549822
186,0.46134528,-0.0204507549822
187,0.2066174176,-0.0204507549822
188,0.1093102208,-0.0204507549822
189,0.0721433152,-0.0204507549822
190,0.0579497952,-0.0204507549822
191,0.0470017856,-0.0204507549822
192,0.0483429056,-0.0204507549822
193,0.1483189312,-0.0204507549822
194,0.61199776,-0.0204507549822
195,1.283630656,-0.0204507549822
196,1.904882144,-0.0159912596395
197,2.39635792,-0.0159912596395
198,3.114572384,-0.0159912596395
199,4.286845376,-0.00699594857304
200,5.765117248,-0.00699594857304
201,7.294038752,-0.00323871294869
202,8.601898976,0.00421948990863
203,9.781101088,0.00963386095037
204,10.761996256,0.0213415287567
205,11.639491072,0.027688560454
206,12.314521472,0.0337446203528
207,12.898355712,0.0387220711774
208,13.29541664,0.0439583823996
209,13.637759872,0.0455372386483
210,13.961908576,0.046666406724
211,14.201745536,0.046591813102
212,14.304430624,0.0466445720829
213,14.387848288,0.0466151526192
214,14.394822112,0.0462292695367
215,14.422359776,0.0450931134172
216,14.396967904,0.0404297025661
217,14.337556288,0.0387867227242
218,14.284447936,0.031796905347
219,14.070762816,0.0283421009543
220,13.897981856,0.0234599446663
221,13.61370912,0.0136033976155
222,13.394614816,0.0111218342068
223,13.255674784,0.00492409214979
224,12.757761632,0.00122009189621
225,12.448812288,-0.00374845697787
226,12.524183232,-0.0112720225234
227,12.823744736,-0.0164723540611
228,13.211686048,-0.0230073721277
229,13.59470992,-0.0254457257326
230,14.025567072,-0.0329846332909
231,14.250919936,-0.0340806784162
232,14.157443872,-0.0356273577982
233,13.627165024,-0.0356004765917
234,13.228450048,-0.0355350870001
235,12.846856704,-0.0354626450005
236,12.767372992,-0.0353574588612
237,12.48560368,-0.0350782153109
238,11.963550368,-0.0351104981235
239,11.244754752,-0.0352632019769
240,10.939784064,-0.0354045842306
241,10.809471904,-0.03558617937
242,10.42541984,-0.0356359765441
243,9.458159392,-0.0352952373686
244,8.204569824,-0.0352952373686
245,6.941100672,-0.034438877898
246,5.845137408,-0.034438877898
247,5.014850016,-0.0327811004733
248,4.4379896,-0.0320040140543
249,4.22318688,-0.0288678021604
250,3.770916512,-0.0288678021604
251,3.274880928,-0.0288678021604
252,3.099238912,-0.0243930961807
253,3.2421576,-0.0225911582623
254,4.280273888,-0.0225911582623
255,5.817912672,-0.0162949528908
256,7.272759648,-0.00882766741708
257,8.4445856,0.0023280903959
258,9.345281792,0.0108628812444
259,9.971137792,0.0240114109809
260,9.983610208,0.0240114109809
261,9.165079968,0.0285564834567
262,8.048418752,0.0373926323522
263,6.942218272,0.0398262996549
264,5.834497856,0.0398262996549
265,4.527263488,0.0398262996549
266,3.063743936,0.0423198483402
267,1.628879648,0.0423198483402
268,0.696756544,0.0423198483402
269,0.321399408,0.0433232064709
270,0.1780202688,0.0433232064709
271,0.117727984,0.0433232064709
272,0.0891755392,0.0433232064709
273,0.089318592,0.0433232064709
274,0.0700332864,0.0433232064709
275,0.0709586592,0.0433232064709
276,0.0519684,0.0416316600814
277,0.05576824,0.0416316600814
278,0.3611323232,0.0416316600814
279,0.90324432,0.0433232064709
280,1.698796704,0.0433232064709
281,2.781795808,0.0433232064709
282,3.935918976,0.044057956813
283,5.100636992,0.044057956813
284,6.145056544,0.0439434866306
285,7.242986784,0.0436505655891
286,8.181770784,0.0436505655891
287,9.015589792,0.0428576603458
288,9.803766016,0.0424825811939
289,10.439099264,0.041925616507
290,10.958068,0.0417562485878
291,11.559694432,0.0416960942007
292,12.12104256,0.042356542994
293,12.620028608,0.0430537630745
294,13.084145536,0.0441435640693
295,13.402303904,0.0459106398813
296,13.808439744,0.0461113379947
297,14.027087008,0.045937164287
298,14.237687552,0.0453250538246
299,14.461833408,0.0447819454399
300,14.738059424,0.0435193582199
301,15.092249216,0.0427931939592
302,15.349073696,0.0423636248316
303,15.690299328,0.0426519813195
304,15.781987232,0.0436249488818
305,15.921955456,0.0446607783235
306,16.10528656,0.0457977027756
307,16.225048576,0.0467661357471
308,16.225853248,0.0483807375688
309,16.76377648,0.0495241557211
310,16.76109424,0.0516554628451
311,16.959758816,0.0546165768928
312,16.830430144,0.057303914634
313,16.601456256,0.0589657448028
314,16.43944896,0.0612289372962
315,16.217314784,0.0631888148559
316,15.991559584,0.0635112501886
317,15.620739904,0.0642476374413
318,15.100608864,0.0643414225988
319,14.05650224,0.0641498814468
320,12.40334832,0.0633080956447
321,11.233131712,0.0608075203106
322,10.142398816,0.0573180822971
323,9.85566736,0.0519187894036
324,9.851107552,0.044238322623
325,10.128406464,0.0308250346576
326,10.408387616,0.0185456775893
327,10.935313664,-0.00387396178059
328,11.655986848,-0.0270819399267
329,12.511442592,-0.0331242183572
330,13.418397344,-0.0446475258128
331,14.358835392,-0.0510782373258
332,15.102084096,-0.0532785893651
333,15.670584864,-0.0533423570795
334,16.163982912,-0.0504838210465
335,16.341413088,-0.048464630301
336,16.425769536,-0.0476001932588
337,16.201042528,-0.0482365761986
338,16.316870592,-0.0491888807158
339,16.369442496,-0.0498963642154
340,16.560775616,-0.0501694935707
341,16.827300864,-0.0497540187119
342,16.97053248,-0.0491165570123
343,17.21863968,-0.0487045176803
344,17.324454048,-0.0489254557349
345,17.223959456,-0.0492180740358
346,17.191102016,-0.0488641581175
347,17.34984592,-0.0452820961904
348,17.351678784,-0.0410595097696
349,18.074453056,-0.0339480767045
350,18.36261504,-0.0291129953013
351,18.546706112,-0.0240425595359
352,18.290239264,-0.0206447217878
353,18.452112448,-0.0190670945347
354,18.729456064,-0.0154889469835
355,18.976311552,-0.0124629983415
356,19.34409136,-0.00672656343971
357,19.62550304,0.00172361775208
358,19.81862432,0.00766001749028
359,19.652012512,0.0109006037395
360,19.441948416,0.0117870709519
361,19.0025528,0.011211171113
362,18.235163936,0.00938409759276
363,17.383955072,0.00462595853397
364,16.937272704,0.000616960510837
365,16.747280704,-0.00281269076161
366,16.514506976,-0.00628953938102
367,15.955885792,-0.00730121753874
368,15.093232704,-0.0136095924554
369,14.244303744,-0.0172536517021
370,13.549827104,-0.0242512297759
371,12.770681088,-0.0284607358401
372,11.8376192,-0.0363724732761
373,10.981135264,-0.0385720100494
374,10.424659872,-0.0400377237986
375,9.468888352,-0.0409442966909
376,8.053962048,-0.0409442966909
377,6.43871712,-0.0410279623476
378,4.832681216,-0.040634339932
379,3.315740384,-0.040634339932
380,1.81632352,-0.040634339932
381,0.74901552,-0.040634339932
382,0.2916310144,-0.040634339932
383,0.1307323776,-0.040634339932
384,0.0748032032,-0.040634339932
385,0.0534391616,-0.040634339932
386,0.0314626752,-0.040634339932
387,0.0313576208,-0.040634339932
