time(s),speed(m/s),grade
0,8.1763616,-0.0103692340717
1,9.61136,-0.00884553522531
2,11.265408,-0.00744963500656
3,12.830048,-0.00644160734041
4,14.08176,-0.00497609152249
5,15.288768,-0.00377878767215
6,16.182848,-0.00283145955158
7,16.98752,-0.00213126949694
8,17.747488,-0.00164995606503
9,18.418048,-0.00160053307562
10,18.9992,-0.00204587176768
11,19.401536,-0.00265922547339
12,19.7099936,-0.00342195718782
13,20.0229216,-0.00401824777644
14,20.34032,-0.00440062724677
15,20.56384,-0.00470965168074
16,20.78736,-0.00505788719922
17,20.9170016,-0.0058016960242
18,21.1405216,-0.00700412450457
19,21.189696,-0.00886109018801
20,21.413216,-0.0107021686091
21,21.6071266235,-0.0125380729541
22,21.636736,-0.0145166562274
23,21.636736,-0.0160840890309
24,22.083776,-0.0173707460645
25,22.2581216,-0.0181391852012
26,22.3922336,-0.0179455613767
27,22.530816,-0.0168328166187
28,22.57552,-0.0144321339373
29,22.754336,-0.0109250148937
30,22.9286816,-0.00727406674722
31,23.1522016,-0.00306656344999
32,23.2863136,0.000746120067181
33,23.335488,0.00344617736866
34,23.335488,0.00527446519592
35,23.201376,0.00564259663499
36,23.0627936,0.00451010964865
37,22.8392736,0.00252382076514
38,22.7051616,0.000423324561878
39,22.7051616,-0.00115449198414
40,22.79904,-0.00176268584864
41,22.9286816,-0.00108004297418
42,23.0627936,0.0013590602846
43,23.201376,0.00559462344539
44,23.24608,0.0111312571871
45,23.201376,0.0165015592859
46,23.201376,0.0217514445059
47,23.0627936,0.0244335039708
48,22.888448,0.0241155991225
49,22.754336,0.0205469643049
50,22.664928,0.0146283208721
51,22.57552,0.00533411904812
52,22.7051616,-0.00592877236213
53,22.9286816,-0.0168313399471
54,23.0627936,-0.028988023972
55,23.2863136,-0.0379626197035
56,23.5098336,-0.0411168398861
57,23.648416,-0.0390123594779
58,23.5992416,-0.0330978536218
59,23.648416,-0.0260099032383
60,23.648416,-0.0201048436523
61,23.91664,-0.0141762776082
62,23.9568736,-0.00877338873494
63,23.9568736,-0.00313403694937
64,23.91664,0.00270128729143
65,23.871936,0.00765304248094
66,23.7333536,0.0103633804688
67,23.5992416,0.010197412747
68,23.648416,0.00732578582482
69,23.648416,0.00240549048065
70,23.648416,-0.00324160666409
71,23.69312,-0.007745602521
72,23.7333536,-0.0114534172509
73,23.91664,-0.0130911671034
74,24.095456,-0.0126588312479
75,24.1803936,-0.010415217729
76,24.2698016,-0.00697513334837
77,24.4039136,-0.00328928706013
78,24.542496,-0.00019938619658
79,24.542496,0.00189570808336
80,24.4933216,0.00315826002084
81,24.542496,0.00429231200313
82,24.542496,0.00558175674662
83,24.542496,0.0075444742809
84,24.7168416,0.0104049348334
85,24.900128,0.0140740787125
86,25.213056,0.0187091292058
87,25.436576,0.0225694222063
88,25.6109216,0.0257074105935
89,25.794208,0.0267812918723
90,25.8344416,0.0260366271032
91,25.9685536,0.0248263890552
92,26.017728,0.0235993984204
93,26.107136,0.0226025370769
94,26.15184,0.0216152554795
95,26.241248,0.0200152323497
96,26.330656,0.0164439829169
97,26.2814816,0.0108011881576
98,25.9685536,0.00191953723289
99,25.5215136,-0.00862279737581
100,25.123648,-0.017962649455
101,24.7168416,-0.0256486959015
102,24.4933216,-0.0308228391203
103,24.318976,-0.0319345143766
104,24.14016,-0.0306890124531
105,24.095456,-0.0283865373705
106,24.006048,-0.0258857062368
107,23.9568736,-0.0233149954937
108,23.8227616,-0.0209959161729
109,23.69312,-0.0191375246323
110,23.648416,-0.0177900986238
111,23.335488,-0.0171950084765
112,23.111968,-0.0173166013085
113,22.9286816,-0.0174820564598
114,22.79904,-0.0171049150161
115,22.57552,-0.0161968349488
116,22.4816416,-0.0146994015759
117,22.217888,-0.0128977890021
118,21.90496,-0.0116094744397
119,21.636736,-0.0108872518107
120,21.45792,-0.0109908451772
121,21.547328,-0.0119923521412
122,21.68144,-0.0143782785164
123,21.5875616,-0.0173670000194
124,21.3640416,-0.0207848043663
125,21.1405216,-0.0241655166552
126,21.100288,-0.0270527148464
127,21.2344,-0.0279259542765
128,21.2746336,-0.0270391507696
129,21.189696,-0.0246071529691
130,21.01088,-0.021199042938
131,20.78736,-0.0174186391981
132,20.429728,-0.0136428622099
133,20.2464416,-0.0100286511641
134,20.56384,-0.00663276435919
135,20.876768,-0.00356407473149
136,21.2746336,-0.00064000765864
137,21.68144,0.00290738820914
138,21.8110816,0.00727995620086
139,22.12848,0.0120403916576
140,22.2581216,0.0181539389724
141,22.57552,0.0239574686753
142,23.1522016,0.0284616054387
143,23.648416,0.0310672669976
144,24.318976,0.0316925884098
145,24.9403616,0.0304635905792
146,25.03424,0.0270290831912
147,24.900128,0.0225271146575
148,24.81072,0.0165524563402
149,24.6274336,0.010482438608
150,24.453088,0.00569832540073
151,24.2698016,0.00194480223437
152,24.4039136,-0.0010825066912
153,24.8509536,-0.00308381133756
154,25.1638816,-0.00500092366257
155,25.3874016,-0.00657686466831
156,25.6109216,-0.0078411655591
157,25.570688,-0.00893194629384
158,25.794208,-0.00995727975158
159,25.92832,-0.0115296804735
160,26.0893437294,-0.0135920595181
161,26.3131228033,-0.0153015079708
162,26.5587621725,-0.0159775256386
163,26.7853667878,-0.0141741361459
164,26.9520416,-0.00968734276282
165,27.04592,-0.00342138641616
166,27.135328,0.00341862905465
167,27.135328,0.0101535056318
168,26.911808,0.017829796203
169,26.8626336,0.0241022794022
170,26.7285216,0.027578459002
171,26.59888,0.0284609476014
172,26.464768,0.0266849847606
173,26.241248,0.0229210869287
174,26.107136,0.0180921604184
175,26.1920736,0.0136152651225
176,26.330656,0.00912896774524
177,26.5050016,0.00533249568025
178,26.6391136,0.0022652310004
179,26.777696,0.000400259859156
180,26.7285216,-0.000618536409028
181,26.777696,-0.00110374435675
182,26.777696,-0.00152570471282
183,26.8224,-0.00193229807997
184,26.8626336,-0.00234144742457
185,26.8626336,-0.00311550095091
186,27.001216,-0.00393224840829
187,27.001216,-0.00396829595917
188,26.911808,-0.00335376143707
189,26.7285216,-0.00275321248021
190,26.37536,-0.00222762890923
191,25.9685536,-0.000972777375269
192,25.570688,0.000870058166898
193,25.25776,0.00379059744475
194,25.213056,0.00697245690033
195,25.25776,0.0101068738775
196,25.3874016,0.0118293249315
197,25.2979936,0.0110012274634
198,25.213056,0.00760126576298
199,25.3874016,0.00299003570586
200,25.436576,-0.00293641399379
201,25.48128,-0.00777191590941
202,25.570688,-0.0118756636154
203,25.92832,-0.0143331708752
204,26.1920736,-0.0159234949041
205,26.5050016,-0.0166409112666
206,26.59888,-0.0166775306024
207,26.8626336,-0.0160293807499
208,27.0861536,-0.0146200086351
209,27.04592,-0.0123852952298
210,27.3096736,-0.00924304168956
211,27.358848,-0.0053171569794
212,27.224736,-0.00129493074389
213,27.3096736,0.00196776535505
214,27.224736,0.00391496944263
215,27.001216,0.0043129926458
216,26.8626336,0.00328121312893
217,26.554176,0.00113490938514
218,26.241248,-0.00168428826695
219,26.2814816,-0.00490465791346
220,26.37536,-0.00822576532658
221,26.464768,-0.0114592595857
222,26.59888,-0.0149190623186
223,27.1755616,-0.0184102697074
224,27.6226016,-0.0215167568886
225,27.895296,-0.0243019550779
226,28.0696416,-0.0268147019523
227,28.118816,-0.0277958671054
228,28.029408,-0.0260306626893
229,27.805888,-0.0212552496521
230,27.6226016,-0.014518592251
231,27.358848,-0.0061180742134
232,27.1755616,0.00128861940109
233,27.3096736,0.00801686601635
234,27.5331936,0.0157577582179
235,27.805888,0.0225598435173
236,27.805888,0.0284267211518
237,27.49296,0.0320675370376
238,27.358848,0.0326603117714
239,27.0861536,0.0292792065955
240,26.59888,0.022737430697
241,26.37536,0.0130573462987
242,26.330656,0.00176992920288
243,26.241248,-0.00930231530024
244,26.107136,-0.0194093277268
245,25.883616,-0.0276832196124
246,25.660096,-0.0327956700295
247,25.436576,-0.036032419879
248,25.25776,-0.0373601160056
249,25.347168,-0.0380971881424
250,25.570688,-0.0388079354002
251,25.92832,-0.0403217517528
252,26.15184,-0.0420547233536
253,26.330656,-0.0432951130136
254,26.464768,-0.0426902105111
255,26.4155936,-0.0398486713177
256,26.330656,-0.036080917176
257,26.1920736,-0.0315622808674
258,26.017728,-0.0272812878442
259,25.794208,-0.0231052539397
260,25.5215136,-0.0184293763644
261,25.347168,-0.011424002292
262,25.570688,-0.00404390841766
263,25.9685536,0.00477592458968
264,25.92832,0.0123404949267
265,25.660096,0.0198513028676
266,25.1638816,0.0258308417561
267,24.5872,0.0323618189048
268,24.2698016,0.0387016347798
269,24.0462816,0.0442774372837
270,23.8227616,0.0470086305505
271,23.424896,0.0448917202525
272,22.79904,0.0386920592792
273,22.217888,0.0277936399243
274,21.90496,0.0167316977801
275,21.9451936,0.00577697065094
276,22.57552,-0.00435189787096
277,23.1522016,-0.00972812252652
278,23.648416,-0.011075585916
279,24.229568,-0.00775168618977
280,24.453088,-0.00128939571937
281,24.453088,0.0056045333714
282,24.318976,0.0103312788113
283,23.9568736,0.0101289999255
284,23.5992416,0.00643265882475
285,23.201376,0.000858997473407
286,23.1522016,-0.00501266230671
287,23.424896,-0.00988267572855
288,23.69312,-0.0128576275934
289,23.9568736,-0.0133467705882
290,24.229568,-0.0116144103468
291,24.4933216,-0.00852783111475
292,24.6274336,-0.00515726565467
293,24.8509536,-0.00227197739646
294,24.989536,-5.37789687717e-05
295,24.900128,0.00104225304619
296,24.7168416,0.00169397217999
297,24.5872,0.00242454824249
298,24.542496,0.00377586207778
299,24.4039136,0.00546781315101
300,24.2698016,0.00733009412711
301,24.095456,0.00903107963525
302,24.229568,0.010323173097
303,24.453088,0.0110664271047
304,24.542496,0.0111056643234
305,24.4039136,0.0103002838904
306,24.1803936,0.00845644241062
307,24.0462816,0.00562416064346
308,23.69312,0.00204173900919
309,23.424896,-0.00185769494975
310,23.111968,-0.00574907345585
311,22.352,-0.00921401022868
312,21.2344,-0.0120911482324
313,19.89328,-0.0136558006322
314,18.418048,-0.0146734345404
315,16.4466016,-0.014909935289
316,14.484096,-0.0147801775064
317,12.96416,-0.0144557637739
318,11.5291616,-0.014147698269
319,11.0633802313,-0.013946113932
320,11.62304,-0.0137715963989
321,12.8702816,-0.0137351129882
322,14.2114016,-0.0138931205181
323,15.154656,-0.0142503735145
324,15.6464,-0.0147347084493
325,16.048736,-0.015259279551
326,16.629888,-0.0157895921513
327,17.2512736,-0.0163829285736
328,17.9218336,-0.0168543075608
329,18.641568,-0.017213604233
330,19.5758816,-0.0173899172193
331,20.519136,-0.0173468467098
332,21.1405216,-0.0170473584397
333,21.323808,-0.016457130932
334,21.413216,-0.0157311125023
335,21.5875616,-0.0151360521254
336,22.0346016,-0.0150989139499
337,22.4816416,-0.0161388431015
338,22.888448,-0.0184742494749
339,22.888448,-0.0216580653404
340,22.977856,-0.0249371140222
341,23.2863136,-0.0274005267081
342,23.871936,-0.0282997149613
343,24.36368,-0.0273915526638
344,24.542496,-0.0250334016243
345,24.7168416,-0.0217824662632
346,24.900128,-0.0174796010516
347,24.989536,-0.0131569788125
348,24.900128,-0.00985102309297
349,24.676608,-0.00750610255729
350,24.766016,-0.00645825075792
351,25.03424,-0.00693007272321
352,25.3874016,-0.00894952704472
353,25.7048,-0.0120202840581
354,25.8344416,-0.0163366827071
355,26.0579616,-0.0200996402269
356,26.107136,-0.0229610008396
357,26.017728,-0.0232699745866
358,25.92832,-0.0207758818619
359,25.883616,-0.0162516474924
360,25.92832,-0.0120096767082
361,26.0579616,-0.008319212617
362,26.1920736,-0.00617542507084
363,26.241248,-0.00524253665643
364,26.330656,-0.00493749551797
365,26.241248,-0.00488298361721
366,26.107136,-0.00492325610422
367,25.92832,-0.00491990613147
368,25.660096,-0.00468665966887
369,25.2979936,-0.00416033876575
370,24.900128,-0.00371209860967
371,24.5872,-0.00387682918199
372,24.453088,-0.00489422993536
373,24.2698016,-0.00712910113383
374,24.0462816,-0.00981813587475
375,23.782528,-0.0124043142455
376,23.648416,-0.0152469360061
377,23.5992416,-0.0175127594026
378,23.7333536,-0.018989522932
379,23.648416,-0.0195935217508
380,23.424896,-0.0192914536853
381,23.02256,-0.0183530143633
382,22.57552,-0.0174331657315
383,22.1687136,-0.0168670769442
384,21.860256,-0.0156263593746
385,21.547328,-0.0143917676474
386,21.68144,-0.012727978051
387,22.083776,-0.0110498679564
388,22.530816,-0.00894949634445
389,22.9286816,-0.00672987320916
390,23.335488,-0.00453927646459
391,23.648416,-0.00183862046312
392,23.69312,0.000551056926229
393,23.648416,0.00243819712603
394,23.9568736,0.00483838630778
395,24.318976,0.00876711983724
396,24.542496,0.0145204387669
397,24.81072,0.0212426523541
398,25.25776,0.0279644269255
399,25.436576,0.032477418698
400,25.436576,0.0353088593168
401,25.1638816,0.036066133241
402,24.8509536,0.0348065584911
403,24.81072,0.0328061566267
404,24.81072,0.030139387012
405,24.766016,0.0270141256729
406,24.542496,0.0236789426127
407,24.14016,0.0205553043954
408,23.5098336,0.0185926360838
409,23.111968,0.0190986068503
410,23.111968,0.0218146047313
411,23.2863136,0.025123639287
412,23.335488,0.0254648672741
413,23.0627936,0.021425487424
414,22.7051616,0.0110958238792
415,22.2581216,-0.00283382606925
416,22.217888,-0.0145643018702
417,22.7051616,-0.0219731430687
418,23.02256,-0.0240655005972
419,23.5098336,-0.0204355503028
420,23.69312,-0.0132094187406
421,24.1803936,-0.00354926578198
422,24.36368,0.00973260241448
423,24.1803936,0.0197861273456
424,23.782528,0.0257860098506
425,23.2863136,0.0276013131954
426,23.1522016,0.0262837133417
427,23.1522016,0.0239402171275
428,23.1522016,0.0215378003552
429,23.1522016,0.017582913426
430,22.664928,0.0132229665809
431,22.1687136,0.00929154638509
432,21.90496,0.00816019701419
433,21.8110816,0.00971764907996
434,22.2581216,0.0132293502092
435,22.754336,0.0162450695725
436,23.111968,0.0192755214368
437,23.3757216,0.0212559963095
438,23.5100142735,0.0214631920649
439,23.5818729825,0.0206958217285
440,23.69312,0.0210292771746
441,23.871936,0.0235040440199
442,24.006048,0.0271868679145
443,24.318976,0.0305900091302
444,24.453088,0.0329734531693
445,24.2698016,0.0339512648534
446,23.91664,0.0333229060222
447,23.424896,0.0315037892691
448,22.754336,0.0280695838299
449,22.441408,0.0245866255939
450,22.352,0.0206294291757
451,22.352,0.0173423549724
452,22.352,0.0145992268524
453,22.4816416,0.0128972232881
454,22.664928,0.0129668953414
455,22.9286816,0.0146969968144
456,23.201376,0.017631111141
457,23.4696,0.0204902376665
458,23.782528,0.0239231369271
459,24.006048,0.0257404186436
460,24.095456,0.0261649114749
461,23.9568736,0.0246419783259
462,23.871936,0.0214725717213
463,24.0462816,0.0172369655348
464,24.1803936,0.0126253103404
465,24.36368,0.00859332080099
466,24.4933216,0.00585085336105
467,24.676608,0.00425418934799
468,24.81072,0.00375770547728
469,25.03424,0.00362040816971
470,25.213056,0.00323078473301
471,25.2979936,0.00212695997301
472,25.25776,-1.65891435451e-05
473,25.03424,-0.00324425713665
474,25.0744736,-0.00568618298892
475,25.0744736,-0.00683009278534
476,24.9403616,-0.00725361506346
477,24.9403616,-0.00813845176221
478,24.9403616,-0.00945072938588
479,25.0744736,-0.0102661115328
480,25.0744736,-0.00890315207264
481,25.03424,-0.00531075608364
482,25.213056,0.000594712169048
483,25.25776,0.00615263295715
484,25.0405719937,0.00979650152223
485,24.766016,0.00978633583127
486,24.5872,0.0050628828643
487,24.318976,-0.00209143398625
488,24.095456,-0.0105698122374
489,24.0462816,-0.0192162856607
490,24.0462816,-0.0270214319642
491,24.0462816,-0.0338667313836
492,24.318976,-0.0369121964505
493,24.989536,-0.0356917780931
494,25.347168,-0.0294640543497
495,25.7048,-0.0166747465046
496,25.9737894535,-0.00134990452268
497,26.107136,0.0167679230277
498,26.107136,0.0279592079009
499,25.9685536,0.0322928535628
500,25.883616,0.0307013890194
501,25.9685536,0.0259344090328
502,25.883616,0.0206986165587
503,25.8344416,0.0138721172926
504,25.7048,0.00612502342347
505,25.7450336,-0.000660009272587
506,25.7450336,-0.00684560947149
507,25.570688,-0.00929683604989
508,25.660096,-0.00733923202951
509,25.8344416,-0.00140814276239
510,25.7450336,0.00367992338053
511,25.570688,0.00427288946866
512,25.48128,-0.00110085274615
513,25.2979936,-0.0110539213795
514,25.25776,-0.0216112062569
515,25.25776,-0.0284441560494
516,25.347168,-0.0308042618615
517,25.5215136,-0.028031450288
518,25.6109216,-0.0225036606089
519,25.7450336,-0.0178148027666
520,25.883616,-0.0150844490454
521,25.9685536,-0.0139895138265
522,26.107136,-0.0134707086566
523,26.37536,-0.013446687538
524,26.6391136,-0.0140172133627
525,26.911808,-0.0150789628339
526,27.001216,-0.0162363816344
527,27.135328,-0.0172474468619
528,27.1755616,-0.0179785826463
529,27.2969713181,-0.0182727179342
530,27.4725457146,-0.0179227506474
531,27.5890360538,-0.0167966528717
532,27.5331936,-0.015117669913
533,27.358848,-0.0134236512492
534,27.448256,-0.0128794201545
535,27.3096736,-0.0139811714453
536,27.358848,-0.0169242210946
537,27.895296,-0.0207850282258
538,28.16352,-0.0246461170527
539,28.118816,-0.0279466585616
540,27.71648,-0.0300853137366
541,27.224736,-0.0296589343372
542,26.464768,-0.026049039632
543,25.347168,-0.0174270336892
544,24.7168416,-0.00569227347309
545,23.91664,0.00714657754647
546,23.648416,0.0167030468022
547,22.9286816,0.0248451294739
548,22.9286816,0.0301756782108
549,22.7051616,0.0327840328348
550,22.57552,0.033594568568
551,22.307296,0.0324920128582
552,21.9451936,0.0297491882712
553,21.3640416,0.0245564501395
554,21.0511136,0.0186129780101
555,20.78736,0.0114696150991
556,20.742656,0.00332864991541
557,20.78736,-0.00450407900075
558,20.7700684016,-0.0113077887716
559,20.7596995052,-0.0166556329784
560,20.876768,-0.020016916908
561,21.100288,-0.0229141641239
562,21.1405216,-0.0257175781097
563,21.4981536,-0.0290500564098
564,22.0346016,-0.0332071767706
565,22.57552,-0.0361459347971
566,22.79904,-0.0374315575915
567,23.201376,-0.0360281828921
568,23.335488,-0.0323745199179
569,23.559008,-0.0281541715984
570,23.7333536,-0.0230223938701
571,23.782528,-0.0169439435647
572,23.69312,-0.00950376428586
573,23.648416,-0.00222971615987
574,23.871936,0.00286561011087
575,24.095456,0.00705937495418
576,24.229568,0.00985540535675
577,24.36368,0.0115569530377
578,24.318976,0.0124092870311
579,24.095456,0.012738577774
580,23.871936,0.0130081542094
581,23.7333536,0.013662252846
582,23.5098336,0.0150734336321
583,23.5098336,0.017154808462
584,23.559008,0.0191462852438
585,23.5992416,0.0209611376651
586,23.69312,0.0217803510013
587,23.782528,0.0212758432816
588,24.0462816,0.0192997912695
589,24.1803936,0.0160608345147
590,24.4039136,0.0121069786849
591,24.4933216,0.0080713841937
592,24.453088,0.00448499786423
593,24.14016,0.00168505717451
594,24.14016,0.000168027533504
595,23.871936,0.00026092418547
596,23.648416,0.00180976668112
597,23.5098336,0.00391443915023
598,23.5098336,0.00666331311032
599,23.4696,0.0092103704821
600,23.335488,0.0111422823462
601,23.24608,0.0121300173671
602,23.02256,0.0125445484368
603,23.02256,0.0127140545061
604,22.888448,0.012506539353
605,22.664928,0.0118619898466
606,22.7051616,0.0115365661293
607,22.888448,0.0115402471831
608,23.02256,0.0113520910374
609,23.3757216,0.0101033826869
610,23.424896,0.00746171607282
611,23.0627936,0.00236092109183
612,22.754336,-0.00441744835206
613,22.6157536,-0.0107829793569
614,22.8392736,-0.01699283931
615,23.1522016,-0.0211422155721
616,23.4696,-0.0236558514969
617,23.7333536,-0.0254892098919
618,24.0462816,-0.0273700273277
619,24.453088,-0.0299054753497
620,24.81072,-0.0329143093574
621,25.0744736,-0.0350244130684
622,25.347168,-0.0331362928728
623,25.7048,-0.0272730398924
624,26.0579616,-0.0195897444202
625,26.330656,-0.0130750999557
