time(s),speed(m/s),grade
0,4.1082976,0.00142361466757
1,5.36448,0.000789639267568
2,7.15264,9.49791035534e-05
3,9.1151456,-0.00100796283011
4,11.0821216,-0.00202757575383
5,13.277088,-0.00317618607972
6,15.512288,-0.00413611582685
7,17.4747936,-0.00442223607305
8,19.0394336,-0.0035688810982
9,20.4699616,-0.00104142255191
10,21.770848,0.00301772456506
11,22.352,0.00818174743624
12,22.79904,0.0144920445885
13,23.201376,0.0201349266588
14,23.782528,0.0241227897859
15,24.095456,0.0261307478958
16,24.229568,0.0261372752696
17,24.2698016,0.0241438277111
18,24.318976,0.0202120821926
19,24.36368,0.0145152478541
20,24.4074037953,0.00728210583097
21,24.4830157473,-0.00130446762505
22,24.6274336,-0.010994981138
23,24.861466006,-0.0208999184879
24,25.1414852527,-0.0295386140247
25,25.4077545365,-0.036075657736
26,25.6005370535,-0.03866168965
27,25.660096,-0.0391935386955
28,25.660096,-0.0391911528054
29,25.9992396477,-0.0391911478858
30,26.37536,-0.0391911478839
31,26.5050016,-0.0391911478839
32,26.7285216,-0.0391911478839
33,26.7285216,-0.0351645408769
34,26.7285216,-0.0271945422188
35,26.59888,-0.0176783472981
36,26.59888,-0.00743102973171
37,26.6391136,0.00157371758069
38,26.7285216,0.00765736741476
39,26.8224,0.00889173330701
40,26.9520416,0.00929681032963
41,27.1755616,0.00929950756813
42,27.3990816,0.00884456708693
43,27.5331936,0.00848632787619
44,27.49296,0.00899461780269
45,27.671776,0.0119861681041
46,27.7567136,0.0170879437488
47,27.8461216,0.0224788444734
48,27.8461216,0.0258465705744
49,27.895296,0.0255130412501
50,27.9802336,0.0215785237157
51,28.0808794108,0.0158847075471
52,28.118816,0.012595045035
53,28.029408,0.0140653637241
54,27.8461216,0.0190657125985
55,27.5331936,0.0232474406782
56,27.224736,0.0244081393184
57,27.135328,0.0213133188327
58,27.135328,0.0153690674895
59,27.224736,0.0090286890273
60,27.26944,0.00536950212336
61,27.358848,0.0027542196543
62,27.448256,-0.000604675239579
63,27.582368,-0.00539225679985
64,27.71648,-0.0109229399995
65,27.895296,-0.0141604407515
66,28.0696416,-0.0140957503271
67,28.2037536,-0.00912310545186
68,28.2037536,-0.00089090440175
69,28.252928,0.00931062829299
70,28.342336,0.0207401351946
71,28.342336,0.0286844560781
72,28.2037536,0.0312879694951
73,28.0696416,0.025555275039
74,27.9802336,0.0134990559972
75,27.8461216,-0.00168921052831
76,27.71648,-0.0166280766891
77,27.6226016,-0.0275045373176
78,27.6226016,-0.0289729607083
79,27.7567136,-0.0259180869645
80,28.029408,-0.0205240676082
81,28.2931616,-0.011841186257
82,28.4272736,-0.00211593856996
83,28.476448,0.0110010209417
84,28.6954976,0.0237216483437
85,28.6954976,0.0333809164764
86,28.744672,0.0348225675979
87,28.744672,0.0316215291534
88,28.744672,0.0232487341404
89,28.6954976,0.0106693746012
90,28.744672,-0.00180322175125
91,28.9190176,-0.00710877047141
92,29.012896,-0.00756312041019
93,29.236416,-0.00563285566052
94,29.50464,-0.00350581571896
95,29.459936,-0.0018150624026
96,29.3213536,0.000477815024753
97,29.236416,0.00451852370185
98,29.0576,0.0120672953013
99,28.83408,0.022481055783
100,28.5166816,0.0318857989908
101,28.342336,0.0345654461769
102,28.342336,0.0306635492922
103,28.2931616,0.0235268834621
104,28.4272736,0.01338108905
105,28.4272736,0.00157989032366
106,28.342336,-0.0123417495942
107,28.342336,-0.0271980570506
108,28.476448,-0.0379884629906
109,28.476448,-0.0412321665531
110,28.61056,-0.034438441831
111,28.83408,-0.0216996303757
112,29.236416,-0.0103049917588
113,29.5448736,0.000739896598536
114,29.683456,0.0122042801717
115,29.7683936,0.0261371978037
116,29.683456,0.0392618523246
117,29.683456,0.0463968677883
118,29.5895776,0.0439290404979
119,29.5448736,0.038373269496
120,29.3660576,0.035775119012
121,29.191712,0.0350263389263
122,29.28112,0.0331633662318
123,29.28112,0.0290905059225
124,29.3213536,0.0245294938325
125,29.459936,0.0215241888435
126,29.50464,0.0213512224888
127,29.638752,0.0210160465876
128,29.638752,0.0180671446439
129,29.638752,0.0145871101123
130,29.683456,0.0122528177814
131,29.72816,0.0136075231409
132,29.72816,0.0201340546174
133,29.72816,0.0297216190479
134,29.72816,0.0347119186005
135,29.7683936,0.0316008065981
136,29.862272,0.021638907932
137,29.9919136,0.00869700741456
138,30.2601376,-0.00302617487583
139,30.577536,-0.0114129407041
140,30.979872,-0.0174136620836
141,31.3777376,-0.0235789465664
142,31.7800736,-0.0288779006302
143,32.18688,-0.0308810244681
144,32.544512,-0.0268189048493
145,32.768032,-0.0159438642904
146,32.9423776,0.000782446097248
147,33.08096,0.0216676254538
148,33.08096,0.0388664829514
149,33.08096,0.0438302496889
150,33.036256,0.0396386809899
151,32.8976736,0.0357193430534
152,32.768032,0.0334400275747
153,32.6741536,0.0317684166271
154,32.544512,0.0301925985604
155,32.4953376,0.0285680599895
156,32.365696,0.0269661856352
157,32.365696,0.024999946046
158,32.544512,0.0225300348006
159,32.812736,0.0228276154883
160,32.991552,0.0254664674422
161,33.1658976,0.0204373502431
162,33.30448,0.00687558727457
163,33.438592,-0.0025655145782
164,33.4315194656,0.00170633802358
165,33.1658976,0.0183381165738
166,32.6741536,0.0351244150159
167,32.320992,0.045541933
168,31.96336,0.0511597172837
169,31.695136,0.0508410006923
170,31.471616,0.037086123129
171,31.1095136,0.0223103033728
172,30.9306976,0.0107602008523
173,30.9306976,0.0036495237542
174,31.06928,-0.000246347900819
175,31.203392,0.00218844423482
176,31.248096,0.0106888769142
177,31.248096,0.0233389101145
178,31.248096,0.0302140627888
179,31.2928,0.0265032921976
180,31.248096,0.0149385842685
181,31.1294383896,0.0014403890531
182,30.756352,-0.00828354148791
183,30.085792,-0.0146976967962
184,29.683456,-0.0179542853736
185,29.5448736,-0.0182251005713
186,29.5895776,-0.0159274038933
187,29.5448736,-0.0123944799156
188,29.5448736,-0.007626345105
189,29.638752,-0.00214077862061
190,29.72816,0.000908347483692
191,29.95168,0.000589816558162
192,30.130496,-0.00123519878551
193,30.309312,-0.00167460833637
194,30.4389536,0.0010670271672
195,30.577536,0.00648922836386
196,30.62224,0.00952901232601
197,30.7071776,0.00706598493672
198,30.8859936,-0.000223921550535
199,31.024576,-0.00848936491298
200,31.1095136,-0.0122907360238
201,31.248096,-0.00895412815031
202,31.3330336,-0.00366089916685
203,31.51632,0.00164974137003
204,31.695136,0.00255007149473
205,31.8247776,-0.00184783905461
206,31.7800736,-0.00882329755651
207,31.695136,-0.0112922844183
208,31.3777376,-0.0102169176588
209,31.203392,-0.00892401123858
210,30.979872,-0.00749717474209
211,30.801056,-0.00783516921317
212,30.532832,-0.011160187777
213,29.9919136,-0.0163709834479
214,29.683456,-0.0197130882748
215,29.72816,-0.0206631954877
216,29.7683936,-0.0204869290364
217,29.72816,-0.0172957666099
218,29.906976,-0.00835671761616
219,29.683456,0.00549331779929
220,29.415232,0.0189484172222
221,29.236416,0.0278543471119
222,29.1425376,0.0310592757811
223,28.9190176,0.0280411070298
224,28.6954976,0.0202049219822
225,28.252928,0.0103423677914
226,28.0696416,0.00345214329887
227,27.8461216,-0.000889662129259
228,27.5331936,-0.00323828986142
229,27.448256,-0.00465340496328
230,27.3990816,-0.00505934713641
231,27.001216,-0.00297862094979
232,26.9520416,0.00163340726915
233,26.777696,0.00549295474522
234,26.8224,0.00673624096248
235,26.777696,0.00718833281734
236,26.554176,0.00860629151384
237,26.15184,0.0101762723347
238,25.436576,0.00876467841813
239,24.36368,0.00512428144172
240,23.1522016,0.00158297373191
241,22.530816,0.000191668996076
242,21.90496,0.00154589981517
243,21.4981536,0.00475354528288
244,20.1168,0.00833129330594
245,18.418048,0.0119185530861
246,16.54048,0.0134925770941
247,14.707616,0.013669427223
248,13.0938016,0.0130732826902
249,11.5291616,0.0126889465026
250,9.7410016,0.0128604121838
251,7.9528416,0.0132197555067
252,5.722112,0.0136009106381
253,3.3930336,0.0140660147555
254,1.6942816,0.0140660147555
255,0.0,0.0140660147555
256,0.0,0.0140660147555
257,0.0,0.0140660147555
258,0.0,0.0140660147555
259,0.0,0.0140660147555
260,0.0,0.0140660147555
261,0.0,0.0140660147555
262,2.0966176,0.0140660147555
263,4.4704,0.014326664111
264,6.526784,0.0148973901344
265,8.27024,0.015524996395
266,9.656064,0.0165493716073
267,10.8586016,0.0180132356997
268,12.0209056,0.0195097501548
269,13.053568,0.0209718801256
270,13.947648,0.022288266021
271,14.618208,0.0235912881711
272,14.75232,0.0243492935324
273,15.1054816,0.024386021695
274,15.9995616,0.0232707083218
275,16.8936416,0.0214580761891
276,17.6983136,0.0166578462966
277,18.55216,0.00873459965066
278,19.1288416,-0.00529591133493
279,19.312128,-0.0207223693405
280,19.4864736,-0.0374044417127
281,19.7994016,-0.0427995122506
282,20.429728,-0.038925120589
283,20.4850230422,-0.0310343370711
284,19.982688,-0.0250386065569
285,19.3523616,-0.0280839813578
286,19.1815931772,-0.0405966879794
287,19.3523616,-0.0497489553206
288,19.5758816,-0.0537848107325
289,19.759168,-0.0467768422026
290,19.982688,-0.0333522268467
291,19.848576,-0.0206489936914
292,19.44624,-0.0139847726934
293,18.730976,-0.0142446773416
294,18.194528,-0.0173398342021
295,18.060416,-0.016707357686
296,17.747488,-0.0100905503483
297,17.5642016,-0.00110184644592
298,17.523968,0.00933771232366
299,17.7877216,0.0160964436294
300,17.9218336,0.0185362490926
301,18.3688736,0.0191625296857
302,18.5923936,0.0206460997501
303,18.5923936,0.0239247857746
304,18.507456,0.029252516943
305,18.418048,0.0350901988067
306,18.3688736,0.0413212765932
307,18.3688736,0.0427740516447
308,18.55216,0.0377422831761
309,18.507456,0.0257274614666
310,18.194528,0.0123726219002
311,18.10512,-0.004318901876
312,17.4747936,-0.0247228944734
313,17.300448,-0.0448449964463
314,16.853408,-0.0597368349647
315,16.406368,-0.0666099251919
316,16.495776,-0.066855120496
317,16.98752,-0.060537557668
318,17.43456,-0.0479166696473
319,17.971008,-0.0365816361744
320,18.418048,-0.0279882125021
321,18.5923936,-0.0206977846165
322,18.641568,-0.0164775402632
323,18.507456,-0.0137738061845
324,18.283936,-0.0124598365385
325,18.1453536,-0.0121261444284
326,17.8816,-0.0124170914815
327,17.613376,-0.0129770055355
328,17.613376,-0.0133522543186
329,17.6983136,-0.0141789025634
330,17.6311328964,-0.0158314820936
331,17.4747936,-0.0174855874377
332,17.389856,-0.0196898333961
333,17.523968,-0.0222874715958
334,17.9218336,-0.0251756134274
335,18.9992,-0.027603189249
336,19.535648,-0.0272824625874
337,20.072096,-0.0220518902056
338,20.34032,-0.014556137628
339,20.6934816,-0.00534344049048
340,21.0511136,0.00527870823092
341,21.100288,0.0168395066569
342,21.189696,0.0221796620741
343,21.2344,0.0185480308457
344,20.966176,0.00847849991154
345,20.8275936,-0.000631852730737
346,20.876768,-0.00635517653196
347,20.876768,-0.0128149521472
348,20.966176,-0.0226429447749
349,21.3640416,-0.0358761681386
350,21.7216736,-0.0471614873712
351,22.2581216,-0.050510127884
352,22.664928,-0.0497439141422
353,23.24608,-0.0419734814448
354,23.91664,-0.0222140479747
355,24.4039136,0.00724705238927
356,24.6274336,0.0153141227559
357,24.36368,0.0144081674545
358,23.782528,0.0214583116953
359,23.201376,0.0381297149621
360,23.0627936,0.0596498751746
361,23.0627936,0.0697265443361
362,23.1522016,0.0603410749999
363,23.0627936,0.0508205343011
364,23.02256,0.0587378129394
365,22.6157536,0.0697456787331
366,22.2581216,0.0677617693059
367,22.12848,0.0640761579632
368,22.0346016,0.0609516671496
369,21.9451936,0.0580422102208
370,22.0346016,0.0548472146658
371,21.994368,0.0520794232445
372,21.8110816,0.0490610104021
373,21.7216736,0.0466866242597
374,21.5875616,0.0437700155019
375,21.547328,0.0401333975117
376,21.68144,0.0351705557479
377,21.8110816,0.0290448100941
378,22.083776,0.0215977949316
379,22.12848,0.0158692262224
380,22.083776,0.0120033427375
381,22.352,0.0103662530191
382,22.441408,0.0108650244726
383,22.083776,0.0121444395244
384,21.189696,0.0127702624063
385,19.848576,0.0131112072127
386,18.418048,0.0135373953647
387,16.8042336,0.0143214890169
388,15.0160736,0.0152551128475
389,12.74064,0.0163535373359
390,10.0092256,0.0170480314249
391,8.1763616,0.0177437389498
392,6.3434976,0.0181984805594
393,5.81152,0.0186387331518
394,5.856224,0.0186387331518
395,6.25856,0.0186387331518
396,7.7293216,0.0186387331518
397,9.38784,0.018420871127
398,11.0821216,0.0181984805594
