time(s),speed(m/s),grade
0,10.103104,-0.013633794774
1,12.1997216,-0.0152315990974
2,13.18768,-0.0172904322444
3,14.3455136,-0.0197317329563
4,15.735808,-0.0218993686154
5,17.0277536,-0.0240581313079
6,18.32864,-0.0256178342062
7,19.4864736,-0.0264743596725
8,20.6934816,-0.0265034502829
9,21.90496,-0.0251736003603
10,23.02256,-0.0225319395823
11,24.095456,-0.0194022943566
12,24.900128,-0.0149290184373
13,25.660096,-0.0103138315811
14,26.330656,-0.00622825862228
15,27.001216,-0.00288122492239
16,27.6226016,-0.000532676796955
17,28.118816,0.000845959329002
18,28.565856,0.00151308341138
19,28.744672,0.00137312586626
20,29.012896,0.000401273570029
21,29.28112,-0.00123197652756
22,29.5895776,-0.0031054539806
23,29.906976,-0.0050696956633
24,30.2154336,-0.00693689518222
25,30.4836576,-0.00857368749033
26,30.7071776,-0.00999802539474
27,30.84576,-0.01095205416
28,30.979872,-0.0117103099797
29,31.1095136,-0.0124726806613
30,31.248096,-0.0131506342157
31,31.2928,-0.0137931077898
32,31.248096,-0.0142106386502
33,31.203392,-0.0143809275176
34,31.1542176,-0.0141412504604
35,31.06928,-0.0132735720657
36,31.024576,-0.0117627484587
37,30.9306976,-0.00978320423785
38,30.8859936,-0.00771688401017
39,30.8859936,-0.00643962023083
40,30.9306976,-0.00620686587387
41,30.84576,-0.00706271627917
42,30.6624736,-0.00873193440971
43,30.4389536,-0.0110847051542
44,30.2154336,-0.0139782500356
45,30.0366176,-0.0171826507628
46,29.862272,-0.0201698250349
47,29.683456,-0.0222844372018
48,29.5448736,-0.0231371581013
49,29.459936,-0.0227673778052
50,29.3660576,-0.0213380539547
51,29.236416,-0.0189995552442
52,29.1425376,-0.0164695054494
53,29.012896,-0.0139110368838
54,29.012896,-0.0119961425849
55,29.012896,-0.0104544963622
56,28.968192,-0.00977346915463
57,28.9190176,-0.00976245167623
58,28.9190176,-0.0104771409916
59,28.9190176,-0.0116279269566
60,28.9190176,-0.0133751928846
61,29.012896,-0.0155667835764
62,29.1425376,-0.0179045893957
63,29.28112,-0.0209392994786
64,29.415232,-0.0243921488326
65,29.638752,-0.0280425342659
66,29.683456,-0.0314943151561
67,29.72816,-0.0340968096423
68,29.638752,-0.0352325622727
69,29.50464,-0.0348207977266
70,29.236416,-0.032469029014
71,28.968192,-0.0282709847051
72,28.789376,-0.0233734791249
73,28.6954976,-0.0171266985731
74,28.83408,-0.0103020299075
75,28.9190176,-0.00290789527153
76,29.012896,0.00443153093271
77,29.0576,0.0118381149493
78,28.83408,0.0193174372759
79,28.6954976,0.0258513770536
80,28.342336,0.0297239130085
81,28.1112135514,0.0305104075811
82,28.061713456,0.0276327406889
83,28.1178790326,0.0223908537424
84,28.2037536,0.0156958151931
85,28.2931616,0.0076134484131
86,28.4272736,0.0010618939118
87,28.4272736,-0.0041274622231
88,28.6507936,-0.00772651331997
89,28.61056,-0.0102607463132
90,28.61056,-0.0116522164545
91,28.5350896454,-0.0126822146287
92,28.476448,-0.0134293040907
93,28.565856,-0.0150720661365
94,28.6954976,-0.0183520880465
95,28.83408,-0.0246703128294
96,29.012896,-0.0318287481426
97,29.0978336,-0.0383202382586
98,29.0978336,-0.043072472298
99,29.145929815,-0.044196181711
100,29.2165643083,-0.0421813176932
101,29.236416,-0.0374989569899
102,29.191712,-0.0299073299833
103,29.28112,-0.0210647638579
104,29.50464,-0.0122412752532
105,29.50464,-0.0042259904723
106,29.638752,0.00194384290271
107,29.638752,0.00778241612042
108,29.683456,0.0129417328597
109,29.638752,0.0186009518493
110,29.683456,0.0240298570811
111,29.683456,0.0315832337958
112,29.638752,0.0399564727091
113,29.638752,0.0504548779507
114,29.72816,0.0610659361387
115,29.638752,0.0710635379725
116,29.28112,0.0771888884526
117,29.191712,0.0795864838617
118,29.3660576,0.0786536503757
119,29.50464,0.0740843862371
120,29.28112,0.0661902555328
121,29.012896,0.0554419826877
122,28.565856,0.0436179149611
123,27.9802336,0.0285013328205
124,27.0861536,0.0153901422445
125,25.9685536,0.000543219708867
126,24.9403616,-0.0119126766549
127,23.648416,-0.0234605872792
128,21.8110816,-0.0312109307527
129,20.1168,-0.0359389135087
130,18.9992,-0.0400407982123
131,17.747488,-0.0423620237905
132,16.3571936,-0.0435037237543
133,14.97584,-0.0435543691092
134,13.500608,-0.0427861521194
135,11.041888,-0.0415993515596
136,8.3998816,-0.0403788429313
137,7.09470938711,-0.0388726395452
138,7.15264,-0.0377097878973
139,8.091424,-0.0364450513505
140,9.209024,-0.0343185273803
141,10.371328,-0.0319521860805
142,11.712448,-0.028499543294
143,13.053568,-0.0248698191854
144,14.2561056,-0.020384676922
145,15.288768,-0.0169232963713
146,16.54048,-0.0123380812183
147,17.65808,-0.00923538626094
148,18.77568,-0.00636963676291
149,19.7994016,-0.00398144007291
150,20.742656,-0.0022372961034
151,21.3640416,-0.000876776862714
152,21.8110816,3.77057433046e-06
153,22.1687136,-8.11694447425e-07
154,22.3922336,-0.00129351389953
155,22.6157536,-0.00436480415187
156,22.888448,-0.00809752707637
157,22.9286816,-0.0122897792803
158,23.1522016,-0.016971615883
159,23.5992416,-0.0208952020501
160,23.91664,-0.0232680016651
161,24.318976,-0.0244298508792
162,24.81072,-0.0237617029163
163,25.436576,-0.0208053078424
164,26.0579616,-0.0162942113287
165,26.7285216,-0.0101180909594
166,27.3990816,-0.00405258816169
167,27.9802336,0.0011303645497
168,28.5166816,0.00531698693042
169,28.789376,0.00726059477675
170,29.1425376,0.00705608826793
171,29.415232,0.00484168804016
172,29.415232,0.000712281443964
173,29.236416,-0.00421627081041
174,29.0978336,-0.00848164330659
175,29.0576,-0.0123520048275
176,29.0576,-0.0146649712761
177,29.1425376,-0.0155105631557
178,29.415232,-0.0143544563716
179,29.7683936,-0.0110631425326
180,30.2154336,-0.00683774412555
181,30.6624736,-0.00377240740228
182,31.1542176,-0.00244454497112
183,31.51632,-0.00298822552022
184,31.650432,-0.00530458089904
185,31.695136,-0.00985669858784
186,31.5565536,-0.0158163926344
187,31.5565536,-0.0235207127867
188,31.426912,-0.0339152400955
189,31.248096,-0.0442065226612
190,31.1095136,-0.0536149289541
191,30.84576,-0.0602175027744
192,30.6624736,-0.0600519548334
193,30.309312,-0.0520568591765
194,29.95168,-0.0376328223815
195,29.415232,-0.0152059246529
196,29.0576,0.00964593356938
197,29.1425376,0.030204106055
198,29.3213536,0.0484992132343
199,29.459936,0.0611465362316
200,29.50464,0.0678234919111
201,29.3660576,0.0706156329597
202,29.0576,0.0693389156617
203,28.8743136,0.0654469478327
204,28.9190176,0.0589185101132
205,28.968192,0.0511198253585
206,29.0978336,0.0426096254349
207,29.236416,0.0345968495646
208,29.3660576,0.0249775534126
209,29.50464,0.0137803361751
210,29.638752,0.000765205664602
211,29.72816,-0.0122739080765
212,29.72816,-0.0217453395522
213,29.8130976,-0.0271863198452
214,29.906976,-0.0266249755979
215,30.1752,-0.021026622911
216,30.309312,-0.0111969966367
217,30.354016,0.00208596109842
218,30.309312,0.0175071728897
219,30.2154336,0.0301566358818
220,30.0366176,0.0397366321946
221,30.0366176,0.0453571639855
222,30.0366176,0.0469194125373
223,30.0366176,0.0444532160229
224,29.95168,0.0395718077054
225,29.862272,0.0335689689954
226,29.862272,0.0275647406189
227,29.7683936,0.0225350189368
228,29.5448736,0.0196266487217
229,29.415232,0.0191989730434
230,29.191712,0.0214857568195
231,29.191712,0.0252888034401
232,29.3660576,0.0293029652903
233,29.3660576,0.0319815998313
234,29.415232,0.0325231706122
235,29.3660576,0.0303379424271
236,29.3660576,0.0254563701886
237,29.50464,0.0178947165419
238,29.7683936,0.00817387271047
239,29.862272,-0.00318259578061
240,30.0366176,-0.0170938516628
241,30.39872,-0.0298240125738
242,30.7071776,-0.0427140889853
243,31.06928,-0.0534692626347
244,31.3330336,-0.062382123392
245,31.471616,-0.069610895626
246,31.6012576,-0.0736589775942
247,31.7800736,-0.0752182480081
248,31.918656,-0.0738865959434
249,32.142176,-0.0696419597623
250,32.365696,-0.0616394550389
251,32.589216,-0.05193460927
252,32.85744,-0.0401376822222
253,33.036256,-0.0286730300905
254,33.1658976,-0.0184765044123
255,33.259776,-0.0100070747278
256,33.483296,-0.00335541517875
257,33.3894176,0.00423541163484
258,33.3894176,0.0138713003871
259,33.30448,0.0260438192569
260,32.768032,0.0383691734228
261,32.320992,0.0473868169064
262,32.142176,0.0538340345837
263,31.918656,0.0562642209562
264,32.0035936,0.0550774716713
265,32.2271136,0.0497186435102
266,32.4953376,0.0410925414733
267,32.768032,0.0279757622229
268,33.08096,0.0118561042905
269,33.30448,-0.0047222804939
270,33.30448,-0.024090702039
271,33.08096,-0.0432435093086
272,32.6741536,-0.0597896125846
273,32.4953376,-0.0709477277977
274,32.4104,-0.0750254101636
275,32.365696,-0.0725885605035
276,32.365696,-0.0628927647267
277,31.96336,-0.0477692288495
278,31.248096,-0.0284810025255
279,30.801056,-0.00797008484803
280,30.801056,0.00693703598362
281,30.9306976,0.0173148966468
282,30.62224,0.0229691345283
283,30.4389536,0.0240174892938
284,30.4836576,0.0209907735487
285,30.7071776,0.0135099557472
286,31.06928,0.00439596676115
287,31.3777376,-0.00512412585847
288,31.6012576,-0.0146601722952
289,31.918656,-0.0219969745571
290,32.142176,-0.0281476872264
291,32.2718176,-0.0322170777965
292,32.4104,-0.0349232190219
293,32.365696,-0.0368677758479
294,32.18688,-0.038283140756
295,31.918656,-0.0381564380891
296,31.6012576,-0.0355719663031
297,31.1095136,-0.0295232343883
298,30.7071776,-0.0207019095331
299,30.354016,-0.00890059777242
300,30.0366176,0.00413625688901
301,30.0485202584,0.0167254702623
302,30.1752,0.0280638491711
303,30.1752,0.037340161726
304,30.1752,0.0445444031002
305,29.95168,0.0495603804872
306,29.5448736,0.0526431301524
307,29.191712,0.0538394872688
308,29.3213536,0.0531270828977
309,29.3213536,0.0509579504942
310,29.2103879461,0.0484644325814
311,29.0825114824,0.0462474190813
312,28.9857656775,0.0445647562397
313,28.968192,0.0434785379581
314,28.968192,0.0427427962607
315,28.789376,0.0420796697842
316,28.8743136,0.0414667302726
317,28.6507936,0.0404699001777
318,28.789376,0.038646117272
319,28.83408,0.0358363284455
320,28.83408,0.0317873957447
321,28.968192,0.0277458052074
322,29.0495213373,0.023367402853
323,29.0978336,0.0194639568875
324,29.1425376,0.0160368551164
325,29.012896,0.0131813013899
326,28.789376,0.0101886585815
327,28.6507936,0.00782722568681
328,28.744672,0.00588890556887
329,28.968192,0.00498638606056
330,28.8743136,0.00500606189684
331,28.789376,0.00609097681492
332,28.61056,0.00783190595493
333,28.0696416,0.0101843987232
334,27.448256,0.0122723023102
335,27.0861536,0.0139929023238
336,27.135328,0.0151288578933
337,27.135328,0.015615752773
338,27.3990816,0.0155538722289
339,27.71648,0.0151505958844
340,28.0696416,0.0146095495255
341,28.342336,0.0140603862653
342,28.789376,0.0135383174301
343,29.191712,0.0127939703594
344,29.5448736,0.0107027832175
345,29.8130976,0.00785844980532
346,30.1752,0.00519514159335
347,30.4836576,0.0024779589606
348,30.9306976,0.00110831017903
349,31.2928,0.00152589473134
350,31.51632,0.00314801767508
351,31.650432,0.00493873633876
352,31.8247776,0.00717541786768
353,31.8959090922,0.00914055822197
354,31.918656,0.0107702350021
355,31.96336,0.0115356807083
356,31.96336,0.0116743858635
357,32.0482976,0.0114575139075
358,32.0482976,0.0112494078457
359,32.097472,0.0111925658614
360,32.0035936,0.0110883346259
361,31.873952,0.0106778296168
362,31.918656,0.00967805329232
363,32.0035936,0.00849811850944
364,32.142176,0.00738873868077
365,32.18688,0.00669954003254
366,32.097472,0.00577980477224
367,32.2271136,0.00373135074128
368,32.365696,-0.000529495590548
369,32.365696,-0.00706320733549
370,32.365696,-0.0175979925591
371,32.768032,-0.0330807029131
372,32.85744,-0.0499427926545
373,33.08096,-0.0665895385147
374,33.036256,-0.0797549353241
375,33.30448,-0.0865625959846
376,33.215072,-0.0821957919651
377,32.8976736,-0.0652488714984
378,32.768032,-0.036644019345
379,32.6741536,-0.00784665601345
380,32.544512,0.0182486689163
381,32.4506336,0.0315978530563
382,32.365696,0.0325681795041
383,32.320992,0.0218210446372
384,32.18688,0.00179046005866
385,31.96336,-0.021376594683
386,31.7800736,-0.0471670985441
387,31.5565536,-0.067904888032
388,31.2928,-0.079390925555
389,30.9306976,-0.0826976142631
390,30.62224,-0.0774170523531
391,30.309312,-0.064818137932
392,30.2154336,-0.0528457104599
393,30.2601376,-0.0439113269857
394,30.2601376,-0.0391231658888
395,30.354016,-0.0372406808913
396,30.4836576,-0.0355616112836
397,30.62224,-0.0314763157348
398,30.756352,-0.0255711455422
399,30.9306976,-0.0183034360105
400,31.203392,-0.00921859240518
401,31.426912,-0.000326050246857
402,31.51632,0.00921261236499
403,31.5565536,0.0175899833953
404,31.471616,0.0242815105199
405,31.248096,0.0285884552428
406,30.9306976,0.0312805044473
407,30.62224,0.0319452970703
408,30.1752,0.0308126833677
409,29.5895776,0.0274918844503
410,28.83408,0.0227500415105
411,28.118816,0.0169449502093
412,27.135328,0.0114456621378
413,25.660096,0.00681913759247
414,24.2698016,0.0025575720525
415,22.1687136,0.000602233863217
416,19.4864736,0.000602233863217
417,16.6701216,0.000602233863217
