time(s),speed(m/s),grade
0,31.5565536,-0.00463504470782
1,31.650432,-0.00499162816437
2,31.73984,-0.00588149185887
3,31.8247776,-0.00731894665603
4,31.918656,-0.00866094010809
5,32.0482976,-0.0100288449747
6,32.18688,-0.0111743866676
7,32.320992,-0.0120618112037
8,32.4104,-0.0124917354422
9,32.4506336,-0.0122466871369
10,32.4104,-0.0111917648342
11,32.320992,-0.00891711389997
12,32.18688,-0.00531647941707
13,32.0482976,-0.00176365576074
14,31.918656,0.00221173146405
15,31.918656,0.00555030646522
16,31.918656,0.00862108211099
17,31.873952,0.0112940867195
18,31.7800736,0.0138169640234
19,31.695136,0.0162886032149
20,31.650432,0.0190412926884
21,31.5565536,0.0222498326323
22,31.51632,0.0266145664293
23,31.3777376,0.0313644539091
24,31.3330336,0.0350168787709
25,31.2928,0.0371840019175
26,31.248096,0.0372308474307
27,31.203392,0.0353013655519
28,31.1095136,0.0314836850277
29,31.1095136,0.0259937015588
30,31.06928,0.0197468264105
31,30.979872,0.0135540073412
32,30.979872,0.00729058505958
33,31.024576,0.00233521832555
34,31.06928,-0.00200619238851
35,31.203392,-0.00584147505085
36,31.3330336,-0.00923962789397
37,31.51632,-0.0124596895957
38,31.695136,-0.0145081523152
39,31.96336,-0.0157682758431
40,32.18688,-0.0160554918352
41,32.320992,-0.0156050057716
42,32.365696,-0.0146745352204
43,32.4104,-0.0133378396701
44,32.4104,-0.0113128339766
45,32.2271136,-0.00853650703173
46,31.96336,-0.0042521365722
47,31.650432,0.00139676140476
48,31.3777376,0.00797296662357
49,30.979872,0.0142423567662
50,30.532832,0.0209514475145
51,29.862272,0.026286298028
52,29.5895776,0.0304925211858
53,29.3213536,0.0333650577022
54,29.1425376,0.0357784203346
55,28.968192,0.0375338671499
56,28.8743136,0.0388583175781
57,28.789376,0.039627086991
58,28.789376,0.0397805879481
59,28.789376,0.0393102649569
60,28.83408,0.0381513534008
61,28.83408,0.0363736983499
62,28.8743136,0.034069777
63,28.968192,0.0304195028959
64,29.0576,0.0262963841801
65,29.1425376,0.0212886345459
66,29.191712,0.0162297435854
67,29.50464,0.0116794968367
68,30.0366176,0.00662698288487
69,30.532832,0.00174573221591
70,30.9306976,-0.00359599253477
71,31.2928,-0.00892000415065
72,31.695136,-0.0138232731899
73,32.097472,-0.0189119569299
74,32.4953376,-0.0247458746904
75,32.8976736,-0.0304683710459
76,33.30448,-0.0353365139053
77,33.6129376,-0.03765489323
78,33.930336,-0.0378140190416
79,34.2387936,-0.0354802545105
80,34.4623136,-0.0310508519423
81,34.2834976,-0.0246071870678
82,34.153856,-0.0167646362982
83,34.377376,-0.00973973193867
84,34.600896,-0.00269369807885
85,34.7305376,0.00347890697832
86,34.779712,0.0086289303306
87,34.42208,0.0134149499
88,33.8364576,0.0175257316538
89,33.30448,0.0203635159922
90,32.9423776,0.0206883634778
91,32.589216,0.0181577623104
92,32.4506336,0.0143815268965
93,32.4506336,0.00928620904477
94,32.544512,0.00433180939201
95,32.6741536,-0.00044373570781
96,32.85744,-0.00517488306964
97,33.036256,-0.0102944820548
98,33.259776,-0.0161292876165
99,33.5682336,-0.0233856469202
100,33.8364576,-0.030346614949
101,34.153856,-0.0371882544378
102,34.4623136,-0.0418548476129
103,34.6858336,-0.0440141046596
104,34.6858336,-0.0443367551301
105,34.5070176,-0.0439743979594
106,34.332672,-0.043649804071
107,34.109152,-0.0435829180429
108,33.930336,-0.0435904474376
109,33.75152,-0.0437888359475
110,33.662112,-0.0449009765147
111,33.662112,-0.0466955755068
112,33.6129376,-0.0483613307358
113,33.662112,-0.0482864999074
114,33.6129376,-0.0460007585712
115,33.5682336,-0.0415447602065
116,33.438592,-0.0348986177276
117,33.3447136,-0.0261373435702
118,33.1211936,-0.0155275980793
119,32.85744,-0.00388136220812
120,32.63392,0.00751871101643
121,32.365696,0.0170361900946
122,32.0482976,0.0241990911129
123,31.7800736,0.0289005187818
124,31.6012576,0.0318084584237
125,31.426912,0.0323326314768
126,31.248096,0.0305370753196
127,31.1095136,0.026448091167
128,30.979872,0.0204023757342
129,30.801056,0.0138314528454
130,30.801056,0.00695225543836
131,30.6624736,0.00165117047987
132,30.62224,-0.00246361633277
133,30.532832,-0.00576106301279
134,30.4836576,-0.00762448666027
135,30.4389536,-0.0079285803651
136,30.4389536,-0.00663344852984
137,30.4389536,-0.00400534429
138,30.4836576,-0.00104538362431
139,30.62224,0.00177500487212
140,30.756352,0.00376144717502
141,30.8859936,0.00447173200121
142,31.1095136,0.00383996179392
143,31.3330336,0.00205917915845
144,31.51632,-0.000536890444499
145,31.7800736,-0.0039471927056
146,32.0482976,-0.00738674660107
147,32.2271136,-0.0114810304728
148,32.365696,-0.0153685587587
149,32.544512,-0.0195044913867
150,32.6741536,-0.0230432418297
151,32.85744,-0.0253807702579
152,32.991552,-0.0259526080195
153,33.1658976,-0.0237664049107
154,33.3894176,-0.0191136782699
155,33.528,-0.0129723737715
156,33.662112,-0.00636700741025
157,33.75152,-0.00210585015005
158,33.8364576,0.00111501650939
159,33.7917536,0.00257702444054
160,33.5682336,0.00320493678051
161,33.3447136,0.00333365968345
162,32.9423776,0.00270544764165
163,32.4953376,0.000890330988409
164,31.918656,-0.00213973183766
165,31.5565536,-0.00515668180609
166,31.2928,-0.00775639595777
167,31.1095136,-0.00948357487231
168,30.979872,-0.0100967581303
169,30.9306976,-0.00984181992658
170,31.1095136,-0.00918163188946
171,31.1542176,-0.00893861742506
172,31.1095136,-0.00949148055125
173,31.024576,-0.0113016362884
174,30.8859936,-0.0147461402308
175,30.756352,-0.0188064340402
176,30.7071776,-0.0231095895335
177,30.6624736,-0.0278948457282
178,30.62224,-0.0313526786442
179,30.62224,-0.0333852978075
180,30.62224,-0.033689358963
181,30.6624736,-0.032385514885
182,30.8859936,-0.0297392739121
183,31.1095136,-0.0265826052974
184,31.3330336,-0.0231317226319
185,31.51632,-0.019840365565
186,31.73984,-0.0169683926338
187,31.96336,-0.0142999703886
188,32.18688,-0.011874546644
189,32.2718176,-0.00955838926872
190,32.2718176,-0.00701298063239
191,32.2718176,-0.00481573423839
192,32.2718176,-0.00314992401087
193,32.320992,-0.00217833121011
194,32.4953376,-0.00165099900401
195,32.589216,-0.00152980712044
196,32.7188576,-0.00167847118104
197,32.812736,-0.00194083127313
198,32.8976736,-0.00204816662808
199,32.991552,-0.00165882423786
200,33.08096,-0.000607348776457
201,33.1658976,0.00106778628879
202,33.215072,0.00335586667421
203,33.259776,0.00634342907405
204,33.30448,0.0103117768229
205,33.259776,0.014904761536
206,33.1658976,0.020426258802
207,33.036256,0.0262484525789
208,32.812736,0.0313518338622
209,32.589216,0.0349655859546
210,32.365696,0.0371030190216
211,32.142176,0.0383932555422
212,31.873952,0.0386080602869
213,31.695136,0.0379135883706
214,31.471616,0.0361706569392
215,31.2928,0.0336624762932
216,31.203392,0.0302677699188
217,31.06928,0.0255198720254
218,31.06928,0.0205199054377
219,31.1095136,0.0158323272469
220,31.203392,0.0114270987644
221,31.3330336,0.00784484149683
222,31.3330336,0.00404417873097
223,31.650432,2.87092273653e-05
224,31.918656,-0.00388496767542
225,32.142176,-0.00748031619514
226,32.4104,-0.00952056534939
227,32.63392,-0.00985220704983
228,32.991552,-0.00811391423188
229,33.3447136,-0.00353455309611
230,33.528,0.00260454769154
231,33.706816,0.0113573297809
232,33.7917536,0.0198227907177
233,33.75152,0.0283501964902
234,33.6129376,0.0345909567493
235,33.483296,0.0374174376272
236,33.438592,0.0370874196549
237,33.259776,0.0340635712931
238,33.1211936,0.0299820506515
239,33.036256,0.0261354897411
240,32.9423776,0.0232125424792
241,32.9423776,0.0211765123656
242,32.9423776,0.0192486989061
243,32.8976736,0.0170872687967
244,32.8976736,0.0151144921594
245,32.8976736,0.0137491194571
246,32.8976736,0.0133616640934
247,32.8976736,0.0143577406441
248,32.8976736,0.0175179119816
249,32.85744,0.022295135241
250,32.85744,0.0268000005657
251,32.85744,0.0301452951393
252,32.85744,0.0327352713392
253,32.812736,0.0347278881136
254,32.812736,0.0366392984997
255,32.7188576,0.0385028503688
256,32.6741536,0.0395271973494
257,32.544512,0.0392933552108
258,32.4953376,0.038655011874
259,32.4104,0.0380923588268
260,32.320992,0.036976388621
261,32.2718176,0.0343240880907
262,32.18688,0.0302359287498
263,32.18688,0.0246109104622
264,32.2271136,0.0190249273667
265,32.2718176,0.0145548002395
266,32.4506336,0.0116211598768
267,32.544512,0.00933555971753
268,32.7188576,0.00776020743653
269,32.9423776,0.00620061866248
270,32.991552,0.00366321657656
271,32.4953376,-0.000118142011791
272,31.695136,-0.00469864202055
273,31.203392,-0.00962641826504
274,31.1095136,-0.0154156450008
275,31.1095136,-0.0205637098103
276,31.1095136,-0.025148190754
277,31.1758720036,-0.0288812954546
278,31.3330336,-0.0308872605251
279,31.51632,-0.03167522264
280,31.5565536,-0.0315193604126
281,31.7800736,-0.0304833929358
282,32.097472,-0.028396317714
283,32.4104,-0.0257060833109
284,32.6741536,-0.0233024487455
285,33.1211936,-0.0205079912518
286,33.259776,-0.0167075931768
287,33.5682336,-0.0117627226652
288,33.706816,-0.0058807771067
289,33.8364576,-0.000510652511734
290,33.8364576,0.00346864566758
291,33.885632,0.00542120143658
292,33.885632,0.00606024209266
293,33.930336,0.00571484731496
294,33.97504,0.00444444015469
295,34.0599776,0.00250216065775
296,34.0599776,-0.000169102455705
297,34.0599776,-0.00379028234072
298,34.109152,-0.00749354351252
299,34.153856,-0.0116244007107
300,34.19856,-0.0152382701449
301,34.2834976,-0.0183191977132
302,34.332672,-0.0196583083558
303,34.42208,-0.0188820746895
304,34.4623136,-0.0159821743273
305,34.5070176,-0.0107109803369
306,34.4623136,-0.00476931310928
307,34.153856,0.00183746524961
308,33.662112,0.00700543542648
309,33.1658976,0.0104719551932
310,32.768032,0.0113366589076
311,32.2271136,0.00920548046287
312,31.918656,0.00345697764725
313,32.0482976,-0.00245657072267
314,32.18688,-0.00756199350783
315,32.18688,-0.0107889124383
316,32.2271136,-0.0111853016836
317,32.18688,-0.00952882861468
318,32.097472,-0.00618633479912
319,31.873952,-0.00184835083682
320,31.695136,0.00267356533157
321,31.51632,0.0081093022408
322,31.3330336,0.0133417862655
323,31.1542176,0.0185048956411
324,30.9306976,0.0234425731082
325,30.756352,0.0265499373467
326,30.39872,0.0282238493417
327,30.0366176,0.0290871415134
328,29.72816,0.0300453536689
329,29.3660576,0.0318396399654
330,29.236416,0.0347482961934
331,29.0576,0.038334081161
332,28.968192,0.0413619135528
333,28.83408,0.0437466471714
334,28.744672,0.0449578996389
335,28.6507936,0.0452651227436
336,28.61056,0.0446069436538
337,28.5166816,0.0428642709979
338,28.5166816,0.0401466251259
339,28.8743136,0.0363264517601
340,29.28112,0.0314221536863
341,29.72816,0.0260966512724
342,30.1752,0.0191980816082
343,30.577536,0.0119850021991
344,31.1095136,0.0050478161307
345,31.471616,-0.0017929691072
346,31.918656,-0.0069238989455
347,32.2271136,-0.0109429762485
348,32.4953376,-0.0128359165416
349,32.6741536,-0.0124347549225
350,32.85744,-0.0102289271484
351,32.991552,-0.00765418554656
352,32.768032,-0.00503762053737
353,32.544512,-0.00316862310182
354,32.4953376,-0.00232485343137
355,32.589216,-0.00227721533665
356,32.6741536,-0.00243064786473
357,32.7188576,-0.00238336181017
358,32.768032,-0.00210784333613
359,32.812736,-0.0017038025772
360,32.85744,-0.00114034520392
361,32.8976736,-0.000135862138662
362,32.9423776,0.00149786139399
363,32.991552,0.0039611542447
364,32.991552,0.00713637946662
365,33.036256,0.0108201954078
366,33.08096,0.014588463401
367,33.1211936,0.0176889985827
368,33.1658976,0.0191736518793
369,33.215072,0.0186463538556
370,33.215072,0.016167008732
371,33.259776,0.0118482659637
372,33.30448,0.00738040514995
373,33.3447136,0.00326456760827
374,33.3894176,-0.000280116988909
375,33.483296,-0.00370798107422
376,33.5682336,-0.00692051785235
377,33.5682336,-0.00942556613665
378,33.30448,-0.0113875579587
379,32.768032,-0.0130110970714
380,32.2271136,-0.0141941335653
381,31.695136,-0.0146309699075
382,31.1542176,-0.0139939858471
383,31.024576,-0.0115831903272
384,31.1542176,-0.00746956144757
385,31.2928,-0.000839776339727
386,31.3777376,0.00652742234761
387,31.426912,0.0152423609682
388,31.51632,0.0227027206251
389,31.51632,0.0288413692534
390,31.51632,0.0336661838375
391,31.51632,0.0360433439013
392,31.51632,0.0362599419738
393,31.51632,0.0339973314986
394,31.51632,0.0303625291971
395,31.5565536,0.0263908754646
396,31.6012576,0.0224417889126
397,31.6012576,0.0194420363175
398,31.6012576,0.0167132092386
399,31.650432,0.0144747056986
400,31.695136,0.0120824170138
401,31.695136,0.00924521497312
402,31.73984,0.00742002786762
403,31.873952,0.00728413392276
404,31.7800736,0.00922770108945
405,31.873952,0.0132972747656
406,31.96336,0.0177414305027
407,32.0035936,0.0221865900338
408,32.0482976,0.0251261031841
409,32.18688,0.0271568365417
410,32.2271136,0.0284698430038
411,32.365696,0.0293025113539
412,32.4953376,0.0291961957789
413,32.63392,0.0273508081294
414,32.7188576,0.0236976271767
415,32.812736,0.0191672364054
416,32.8976736,0.0146318670082
417,33.036256,0.0105779831959
418,33.1211936,0.00724625806776
419,33.1211936,0.00462473274821
420,33.215072,0.00259632926546
421,33.30448,0.000947513046399
422,33.438592,-0.000607115914573
423,33.6129376,-0.00247610908114
424,33.8364576,-0.00459221803172
425,34.109152,-0.00746998199629
426,34.153856,-0.0107241638495
427,33.885632,-0.0143764275821
428,33.528,-0.0180265879443
429,33.08096,-0.0209278993002
430,32.812736,-0.0223158297226
431,32.589216,-0.0223503444199
432,32.365696,-0.0218933302613
433,32.2718176,-0.0213019752178
434,32.2718176,-0.019957704517
435,32.320992,-0.0170312754876
436,32.365696,-0.0129105256135
437,32.365696,-0.00881613706093
438,32.4953376,-0.00514701162448
439,32.768032,-0.00153051705847
440,32.9423776,0.00284221976249
441,33.036256,0.00754195751242
442,33.1211936,0.01270133033
443,33.1211936,0.0182959796643
444,33.036256,0.0228463561241
445,32.991552,0.0262945842357
446,32.85744,0.0278196366888
447,32.812736,0.0270557785755
448,32.6741536,0.0248755887758
449,32.589216,0.0214462802854
450,32.4953376,0.0176423833562
451,32.4104,0.0138603724392
452,32.365696,0.0112162776757
453,32.320992,0.00948716812438
454,32.320992,0.00856106186066
455,32.365696,0.0079200511497
456,32.4506336,0.00732442491494
457,32.589216,0.00629586687961
458,32.7188576,0.00428489982538
459,32.8976736,0.000510887424838
460,33.1211936,-0.00440083998293
461,33.3894176,-0.010306214543
462,33.5682336,-0.0166561329827
463,33.930336,-0.0218915415321
464,34.2834976,-0.0272387436578
465,34.6456,-0.0324470630368
466,35.003232,-0.0367507935407
467,35.3563936,-0.0402517052902
468,35.718496,-0.0429301499233
469,36.0716576,-0.0459865884673
470,36.2951776,-0.0486233606707
471,36.21024,-0.0491811396858
472,36.0269536,-0.0456160386395
473,35.8034336,-0.0393704077832
474,35.5799136,-0.0322017196673
475,35.31616,-0.0266474007112
476,35.047936,-0.0214066507414
477,34.6456,-0.0158824469703
478,34.153856,-0.00977554433572
479,33.6129376,-0.00566915863955
480,33.1211936,-0.00391252508146
481,32.63392,-0.00454594994695
482,32.142176,-0.00649449032805
483,31.873952,-0.00951379788311
484,31.6012576,-0.011807783813
485,31.471616,-0.0131983931518
486,31.471616,-0.0131507944683
487,31.471616,-0.0121773595005
488,31.5565536,-0.0110475403606
489,31.6012576,-0.00950823473007
490,31.5565536,-0.00787388122983
491,31.5565536,-0.00599709417778
492,31.51632,-0.00400670559551
493,31.51632,-0.00200431541997
494,31.471616,0.000612543951326
495,31.471616,0.00389016291035
496,31.426912,0.00771315513819
497,31.471616,0.0123615187242
498,31.426912,0.0175541412321
499,31.471616,0.0233062202473
500,31.426912,0.027783668618
501,31.426912,0.0307183264332
502,31.3777376,0.0316381561486
503,31.3777376,0.0307523630869
504,31.3777376,0.0281431467552
505,31.3777376,0.0243020423995
506,31.3330336,0.0180868803347
507,31.3330336,0.0103307091171
508,31.3330336,0.000724034050949
509,31.2928,-0.0109419469288
510,31.2928,-0.02124519278
511,31.1095136,-0.0298248155682
512,31.024576,-0.0357838034446
513,30.84576,-0.0376064294841
514,30.6624736,-0.0363960845515
515,30.532832,-0.0320341442454
516,30.4389536,-0.0256606411936
517,30.4836576,-0.0175086952893
518,30.577536,-0.00825191540302
519,30.6624736,0.00141269520096
520,30.756352,0.0117312258224
521,30.84576,0.0202164602728
522,30.9306976,0.0273314584565
523,30.9306976,0.032594646427
524,30.9306976,0.0356752752197
525,30.979872,0.0361446658814
526,31.06928,0.033550360531
527,31.1542176,0.0272541033262
528,31.248096,0.0190085010923
529,31.3330336,0.00944901735122
530,31.471616,-0.000894795780382
531,31.650432,-0.00959775003321
532,31.873952,-0.0156824403363
533,32.142176,-0.0188728607001
534,32.365696,-0.0208724872143
535,32.589216,-0.0212768990367
536,32.812736,-0.0205755233626
537,32.991552,-0.0185372314568
538,33.215072,-0.0149478112832
539,33.3447136,-0.0102759175889
540,33.3894176,-0.00623679404702
541,33.1211936,-0.00348463431497
542,33.215072,-0.00241244979343
543,33.215072,-0.00209491630383
544,33.259776,-0.00257949121069
545,33.215072,-0.00376419324149
546,33.30448,-0.00488066211354
547,33.438592,-0.00591157832579
548,33.438592,-0.00637349665119
549,33.1658976,-0.00601656583406
550,33.215072,-0.00477384410616
551,33.215072,-0.00268420422503
552,32.9423776,0.000202268295521
553,32.85744,0.00332582065656
554,32.7188576,0.00662802967842
555,32.63392,0.00958613137484
556,32.589216,0.0129711456334
557,32.544512,0.0163094502681
558,32.4506336,0.0171574339575
559,32.365696,0.01158842941
560,32.2271136,-0.00228502701884
561,31.96336,-0.023075957556
562,31.8247776,-0.0596289209888
563,31.918656,-0.0536589073055
564,32.0482976,-0.0260428776081
565,32.2271136,-0.0132430145072
566,32.4104,-0.0118269090206
567,32.589216,-0.0140782403832
568,32.4953376,-0.0194079006753
569,32.18688,-0.0275343972959
570,31.7800736,-0.0384821236333
571,31.06928,-0.0524614237828
572,30.1752,-0.0575774008231
573,28.8743136,-0.0489579163712
574,27.001216,-0.0341331657874
