time(s),speed(m/s),grade
0,8.806688,0.00337777389046
1,9.924288,0.00294928838119
2,10.9033056,0.00207784191946
3,11.712448,0.00083875631318
4,12.4679456,-0.000690168425829
5,13.18768,-0.0028970102193
6,13.947648,-0.00483588370759
7,14.3455136,-0.00744501306106
8,15.0160736,-0.0101761159481
9,15.601696,-0.0137203725036
10,16.182848,-0.0167776273476
11,16.8042336,-0.0203228838851
12,17.523968,-0.0234314015333
13,18.10512,-0.026028708736
14,18.730976,-0.0285531671224
15,19.3523616,-0.0321551379859
16,19.982688,-0.0357690494683
17,20.6040736,-0.0395619196524
18,21.2746336,-0.0415027238653
19,21.90496,-0.0399946093408
20,22.4816416,-0.0325435323083
21,22.977856,-0.0198807883611
22,23.335488,-0.00674095753754
23,23.559008,0.00864380554946
24,23.69312,0.0229846210993
25,23.8227616,0.0338188466252
26,23.871936,0.0397270130753
27,24.006048,0.0395698300219
28,24.006048,0.0358869868221
29,24.14016,0.0303875980089
30,24.14016,0.0246332588054
31,24.229568,0.0201212083511
32,24.229568,0.0178326985193
33,24.229568,0.0174138981383
34,24.14016,0.0184984512865
35,24.229568,0.0206036714379
36,24.2698016,0.0235799460753
37,24.318976,0.0270664367353
38,24.318976,0.0305542589561
39,24.318976,0.033369524581
40,24.229568,0.0334949964892
41,24.229568,0.0296492769289
42,24.229568,0.0228995299027
43,24.318976,0.0159126495476
44,24.4039136,0.0111277057261
45,24.4039136,0.00936214713318
46,24.4933216,0.0107826929567
47,24.5872,0.0156931763456
48,24.7168416,0.0217787966586
49,24.900128,0.0273226968695
50,25.123648,0.0304137033283
51,25.2979936,0.0297900577733
52,25.347168,0.0264876320717
53,25.2979936,0.0231071064354
54,25.2979936,0.0206287313892
55,25.347168,0.0187358233445
56,25.347168,0.0148444519603
57,25.347168,0.00839000775896
58,25.3874016,-9.87217026998e-05
59,25.7450336,-0.00564407869748
60,26.0579616,-0.00981735418754
61,26.4155936,-0.0116149647398
62,26.554176,-0.00954422494163
63,26.554176,-0.00332368156551
64,26.464768,0.00718810311525
65,26.37536,0.0144894736865
66,26.37536,0.0145041790986
67,26.464768,0.00947583960794
68,26.6391136,0.0022127817961
69,26.8626336,-0.00323444231129
70,27.0861536,-0.00475512299555
71,27.26944,-0.00269440903437
72,27.3990816,0.001357044176
73,27.448256,0.00524293052654
74,27.448256,0.0076332792969
75,27.582368,0.00803657168387
76,27.582368,0.0072676568683
77,27.49296,0.00670668200132
78,27.358848,0.006668266684
79,27.26944,0.00611164053795
80,27.1755616,0.00442000127018
81,27.1755616,0.00199916360684
82,27.224736,0.00181968704955
83,27.3990816,0.00600968854502
84,27.5331936,0.0154112114551
85,27.71648,0.0292458112879
86,27.71648,0.039719129367
87,27.7567136,0.044771048587
88,27.71648,0.0449403888113
89,27.6226016,0.0440855031345
90,27.49296,0.0415234496522
91,27.358848,0.0363485377569
92,27.26944,0.0325297208615
93,27.1755616,0.033780413745
94,27.0861536,0.036838787046
95,27.001216,0.0364725934668
96,27.001216,0.0325108244574
97,27.0861536,0.0294106869992
98,27.04592,0.0294519397202
99,26.911808,0.0330502039865
100,26.777696,0.0367711227802
101,26.7285216,0.0372233197464
102,26.7285216,0.0314498665624
103,26.59888,0.0189999680348
104,26.330656,0.00295977205988
105,26.15184,-0.0117762189104
106,26.15184,-0.0232279908121
107,26.4155936,-0.0342068056073
108,26.59888,-0.0407714637062
109,26.8224,-0.0448400434494
110,27.001216,-0.0448725072009
111,26.911808,-0.0402139488883
112,26.911808,-0.0322387655976
113,27.001216,-0.0253106325118
114,26.9520416,-0.0236893630368
115,27.04592,-0.026310471147
116,27.0861536,-0.0297676131743
117,27.0861536,-0.0320810588323
118,26.9520416,-0.0328673242155
119,27.001216,-0.0311888194413
120,26.8224,-0.0253597300153
121,26.6391136,-0.0159344205878
122,26.464768,-0.00780730617483
123,26.37536,-0.00504183341078
124,26.37536,-0.0092398331771
125,26.464768,-0.0191398939285
126,26.777696,-0.0315206661087
127,27.04592,-0.0413967173861
128,27.0861536,-0.0430457699589
129,27.1755616,-0.0331502683425
130,27.04592,-0.0130385464766
131,26.8224,0.0110279515315
132,26.59888,0.0318451043095
133,26.37536,0.0407382457836
134,26.2814816,0.04271658119
135,26.15184,0.0426505289182
136,26.1920736,0.0426645069223
137,26.15184,0.0429629800905
138,26.2814816,0.0418879891533
139,26.330656,0.0389919863204
140,26.330656,0.0350727066279
141,26.37536,0.0309019360434
142,26.4155936,0.0248906902666
143,26.37536,0.0177619491839
144,26.4155936,0.00916239362367
145,26.6391136,0.00188275698424
146,26.8626336,-0.00336283403009
147,27.001216,-0.00767825424403
148,27.135328,-0.0120330376827
149,27.224736,-0.0156550004633
150,27.224736,-0.0171687773976
151,27.224736,-0.0158793807021
152,27.1755616,-0.0132386281347
153,27.0861536,-0.0106679977359
154,26.9520416,-0.00929716667075
155,26.911808,-0.00961121287663
156,26.8626336,-0.0120382327809
157,26.911808,-0.0173318256581
158,26.911808,-0.0249758496889
159,26.9520416,-0.0317754124673
160,27.04592,-0.0339940280791
161,27.135328,-0.032316279744
162,27.135328,-0.0323235717433
163,27.0861536,-0.0363900259541
164,27.0861536,-0.0414875839205
165,27.04592,-0.0430586818022
166,26.9520416,-0.0388299343572
167,26.8626336,-0.0301361762943
168,26.8626336,-0.0201587829751
169,26.808496943,-0.0083997644987
170,26.7434976493,0.0017459759139
171,26.777696,0.00967050990344
172,26.8224,0.0123387617315
173,26.464768,0.00848146867191
174,26.5050016,-0.00184212504674
175,26.59888,-0.0152602529241
176,26.8224,-0.0271174947593
177,26.9520416,-0.0331035931767
178,27.135328,-0.0330708035197
179,27.04592,-0.0300267467441
180,27.0861536,-0.0263756011654
181,27.04592,-0.0236152592237
182,26.8224,-0.0209831105849
183,26.7285216,-0.0192201356747
184,26.59888,-0.0173803789481
185,26.464768,-0.0127846819006
186,26.5050016,-0.00415360993726
187,26.554176,0.00823755214549
188,26.464768,0.0242466680602
189,26.554176,0.0399545532776
190,26.59888,0.0507607642145
191,26.59888,0.0450134323413
192,26.688288,0.0291536335359
193,26.7285216,0.0142731853276
194,26.8224,0.00662208341555
195,26.688288,0.00562677891699
196,26.6391136,0.00827378718617
197,26.6391136,0.0112900965638
198,26.59888,0.0139137108476
199,26.554176,0.0166481386511
200,26.554176,0.020091487848
201,26.6391136,0.0241722699697
202,26.6391136,0.0277596546361
203,26.6391136,0.0289132981992
204,26.554176,0.0268119028133
205,26.5050016,0.0214697729669
206,26.464768,0.0151410925205
207,26.5050016,0.0112789320789
208,26.688288,0.00989365225584
209,26.911808,0.0111484978792
210,27.001216,0.0166891005738
211,27.001216,0.0267595663214
212,26.8224,0.0375103688487
213,26.554176,0.0432113329685
214,26.554176,0.0393942028846
215,26.5050016,0.0308328494995
216,26.554176,0.0225852667801
217,26.554176,0.0163098084852
218,26.554176,0.0112862401629
219,26.6391136,0.00770194970038
220,26.777696,0.00615227769551
221,26.8626336,0.00554918282968
222,26.9520416,0.00512361495592
223,26.9520416,0.00378152846123
224,26.9520416,0.000628279589184
225,26.9520416,-0.00261557840675
226,26.9520416,-0.00445462862843
227,26.9520416,-0.00390765713543
228,26.9520416,-0.000228272196049
229,26.9520416,0.00524406562403
230,26.9520416,0.0102868672801
231,26.9520416,0.0135576791542
232,26.9520416,0.0147852802949
233,26.9520416,0.0142097157112
234,26.8626336,0.0121359432205
235,26.6391136,0.00921443701673
236,26.4155936,0.00634447887249
237,26.37536,0.00499357619071
238,26.330656,0.00548875877385
239,26.330656,0.00718745063356
240,26.241248,0.00954401740246
241,26.330656,0.0126521786521
242,26.464768,0.0155941011089
243,26.5050016,0.0176498488784
244,26.4155936,0.016489547925
245,26.464768,0.0123953843396
246,26.464768,0.00808501256563
247,26.464768,0.00566396376529
248,26.37536,0.0047807131532
249,26.2814816,0.00409943090665
250,26.5050016,0.00283029044797
251,26.37536,0.00123545782049
252,26.4155936,0.000586316050942
253,26.464768,0.00264031268769
254,26.554176,0.00644089219799
255,26.554176,0.00951391046259
256,26.1920736,0.0124910373115
257,25.883616,0.0159722826028
258,25.570688,0.0210493054701
259,25.123648,0.0252779815971
260,24.7168416,0.0285204940794
261,24.318976,0.0290997151055
262,23.9568736,0.027098022854
263,23.559008,0.0226776159336
264,22.977856,0.0179134287113
265,22.530816,0.0131522684507
266,22.217888,0.00991532506787
267,21.9451936,0.0069068901861
268,21.68144,0.0045696774205
269,21.45792,0.00230933562566
270,21.2344,0.000764125565178
271,21.01088,-0.00029981452784
272,20.8275936,-0.00100206776321
273,20.653248,-0.000821738327621
274,20.519136,-8.52774209058e-05
275,20.653248,0.00077417357878
276,20.8275936,0.00135918914746
277,21.2344,0.00139356261709
278,21.68144,0.0012862091257
279,21.9451936,0.00229460596508
280,21.90496,0.00584735820622
281,21.547328,0.0135326557653
282,21.01088,0.0217368264861
283,20.3805536,0.0284876326267
284,19.759168,0.0319282844998
285,18.9053216,0.030944846524
286,18.0112416,0.0265642638727
287,16.853408,0.020752397972
288,15.735808,0.011680323313
289,14.4349216,0.00304104617767
290,13.3173216,-0.00399812857546
291,12.4232416,-0.0124994758038
292,11.891264,-0.0185717954638
293,11.9762016,-0.0236331700867
294,12.606528,-0.0274656469288
295,13.277088,-0.0299799947355
296,13.9878816,-0.0312362419287
297,14.75232,-0.0304372088664
298,15.288768,-0.027794738961
299,15.6464,-0.0237679598132
300,16.09344,-0.0189155591193
301,16.31696,-0.0135551479093
302,16.495776,-0.0103228755344
303,16.54048,-0.00963111507542
304,16.272256,-0.0112728331484
305,15.7760416,-0.0144010148421
306,15.154656,-0.0178831623328
307,14.4349216,-0.0204791551375
308,13.500608,-0.0214243006574
309,12.2444256,-0.0216978426808
310,10.8586016,-0.0216123355473
311,9.477248,-0.0213637993416
312,7.9975456,-0.0209772255851
313,6.392672,-0.020657301168
314,4.604512,-0.0202970925015
315,3.12928,-0.0201016012714
316,2.45872,-0.0198966595645
317,1.78816,-0.0198966595645
318,1.072896,-0.0196828730329
319,0.89408,-0.0196828730329
320,1.1176,-0.0196828730329
321,1.3813536,-0.0196828730329
322,1.56464,-0.019460847348
323,1.4707616,-0.019460847348
324,1.3813536,-0.0192311881283
325,1.654048,-0.0192311881283
326,1.6942816,-0.0189945011062
327,1.2472416,-0.0189945011062
328,0.0,-0.0189945011062
329,0.0,-0.0189945011062
330,0.0,-0.0189945011062
331,1.1578336,-0.0187513919369
332,1.0869970139,-0.0187513919369
333,0.8449056,-0.0185024663714
334,0.0,-0.0185024663714
335,0.0,-0.0185024663714
336,0.0,-0.0185024663714
337,0.0,-0.0185024663714
338,0.0,-0.0185024663714
339,1.1176,-0.0185024663714
340,2.68224,-0.0182483301861
341,4.380992,-0.0179895891006
342,5.7623456,-0.0174607155476
343,6.8799456,-0.0169233636908
344,8.136128,-0.0161111195967
345,9.253728,-0.0153008024871
346,10.2327456,-0.0145082969918
347,11.041888,-0.013496651901
348,11.84656,-0.0125761813018
349,12.606528,-0.0117979630599
350,13.3173216,-0.0110901516958
351,13.947648,-0.0107288533349
352,14.5288,-0.010868747643
353,14.97584,-0.0113273447086
354,15.512288,-0.0120616696545
355,16.09344,-0.0131721631911
356,16.629888,-0.0142650218472
357,17.076928,-0.0149757592673
358,17.5642016,-0.0154748890185
359,17.971008,-0.0153869381772
360,18.507456,-0.0149483763934
361,18.9992,-0.0143183815814
362,19.44624,-0.01392699792
363,19.66976,-0.0138507754951
364,20.206208,-0.0143388123691
365,20.429728,-0.0155415239325
366,20.6849873856,-0.0175718664802
367,21.0647405176,-0.0202187986534
368,21.4981536,-0.0231976789149
369,21.9451936,-0.024641026956
370,22.3922336,-0.0240931350313
371,22.57552,-0.0208683995128
372,22.530816,-0.0151718955951
373,22.352,-0.00808594741926
374,22.307296,-0.00132479465513
375,22.441408,0.00632293801539
376,22.6157536,0.0128020625446
377,22.79904,0.01686576922
378,23.0627936,0.0199093039149
379,23.111968,0.0210786168832
380,23.424896,0.0214755303449
381,23.559008,0.0213928924259
382,23.5992416,0.0208905781037
383,23.5992416,0.0200030604995
384,23.559008,0.0187077728763
385,23.424896,0.0171110819859
386,23.24608,0.0143865045173
387,23.0627936,0.0103964951982
388,23.0627936,0.00589218798775
389,23.0627936,-0.000324676832617
390,22.9286816,-0.0072558615224
391,22.754336,-0.0132145124315
392,22.8392736,-0.018783187389
393,22.664928,-0.0218073643607
394,22.217888,-0.022441187607
395,21.3640416,-0.020284753641
396,20.6040736,-0.0158933366386
397,19.66976,-0.00953077452548
398,18.418048,-0.00270583230558
399,17.1171616,0.00497783876495
400,15.6464,0.0118781529121
401,14.2561056,0.0189048541515
402,12.96416,0.0256639318428
403,11.62304,0.0305414046434
404,10.371328,0.0345928078102
405,9.9645216,0.0368470343805
406,10.103104,0.0382246995343
407,10.6797856,0.0385715057747
408,11.488928,0.0377324213684
409,12.4679456,0.0351610883642
410,13.5408416,0.029807766202
411,14.707616,0.0225337405222
412,15.825216,0.0138286271732
413,16.942816,0.00458908453728
414,17.8816,-0.00609187548348
415,18.5923936,-0.0150509810202
416,19.2629536,-0.0219331481069
417,19.982688,-0.0247845364911
418,20.653248,-0.0258123062051
419,21.2344,-0.0258685494977
420,21.7216736,-0.0258120464669
421,22.12848,-0.0258348928334
422,22.530816,-0.0252711356828
423,23.0627936,-0.0231774981432
424,23.7333536,-0.0175139541664
425,24.36368,-0.00802701085487
426,24.766016,0.00421191026679
427,25.03424,0.0182202928024
428,24.9403616,0.0285030552468
429,24.8596072149,0.0352700984333
430,24.8540520888,0.0376495194716
431,24.8509536,0.035925006012
432,24.766016,0.0300474673848
433,24.5872,0.020393837673
434,24.6274336,0.00545101765956
435,24.766016,-0.0176896472603
436,24.81072,-0.0408259311463
437,24.81072,-0.0614975205784
438,24.766016,-0.0761065802825
439,24.9403616,-0.0790744156772
440,25.1638816,-0.0715320489956
441,25.436576,-0.057109262742
442,25.6109216,-0.0442661024244
443,25.6109216,-0.0336074818059
444,25.48128,-0.0277402441451
445,25.2979936,-0.0257397995809
446,25.3874016,-0.0259062232594
447,25.570688,-0.028423886156
448,25.8344416,-0.0330289390765
449,25.9685536,-0.0407755595842
450,26.0579616,-0.0501704665343
451,26.1920736,-0.0576220955644
452,26.4155936,-0.0625205521479
453,26.6391136,-0.0630038104498
454,26.911808,-0.0604764232959
455,27.135328,-0.055718451565
456,27.04592,-0.0481882192115
457,26.7884231498,-0.0395432583615
458,26.554176,-0.0306981710197
459,26.554176,-0.0222616300862
460,26.8626336,-0.015213613111
461,26.8224,-0.00788933792929
462,26.8224,-0.00110448977513
463,26.7285216,0.00525458696388
464,26.554176,0.0110714015488
465,26.59888,0.0163457096844
466,26.6391136,0.0210741592693
467,26.688288,0.025260592244
468,26.777696,0.0285206757693
469,26.911808,0.0311093664627
470,27.04592,0.0319368316022
471,27.135328,0.0313696212391
472,27.224736,0.0303106112689
473,27.26944,0.0294666439321
474,27.3096736,0.0296241377214
475,27.358848,0.0309584056904
476,27.358848,0.0322789087282
477,27.3990816,0.0319031548167
478,27.26944,0.0300718998634
479,27.1755616,0.0280706178044
480,27.1755616,0.0268557748162
481,27.135328,0.0268651414627
482,26.8626336,0.0276355641391
483,26.6391136,0.0272077263549
484,26.37536,0.0231661809312
485,26.4155936,0.016128896623
486,26.554176,0.0116394130144
487,26.7285216,0.015076076248
488,26.9667576629,0.0249652848402
489,26.911808,0.0335049339956
490,26.4155936,0.0379491152975
491,26.241248,0.0373283636316
492,26.241248,0.0339218559209
493,26.37536,0.0300551449235
494,26.5050016,0.0268801917334
495,26.6391136,0.0236825555105
496,26.688288,0.0206614596472
497,26.6391136,0.0175260410654
498,26.6391136,0.0147422766121
499,26.554176,0.0129193888472
500,26.3581899368,0.0125213215799
501,26.15184,0.013463373827
502,25.9685536,0.0149309569101
503,25.7048,0.0162753746902
504,25.7450336,0.0161266392071
505,25.7450336,0.0139248574821
506,25.7450336,0.0109333552575
507,25.883616,0.00767204286171
508,25.883616,0.00500871232026
509,25.883616,0.00296091170532
510,25.7450336,0.000701747761171
511,25.660096,-0.00145240449324
512,25.3874016,-0.00421565082544
513,25.25776,-0.00671256722096
514,25.0744736,-0.00870622508093
515,24.900128,-0.00923043565165
516,24.8509536,-0.00816428789348
517,24.900128,-0.00491297995519
518,25.123648,0.00107076918198
519,25.347168,0.0100475570611
520,25.570688,0.0192572735358
521,25.7450336,0.0291603260748
522,25.92832,0.0355826314449
523,26.15184,0.0379370172126
524,26.330656,0.0350692090965
525,26.464768,0.0291402840585
526,26.330656,0.0208418621401
527,26.37536,0.013334997543
528,26.15184,0.00780150624695
529,26.0579616,0.00434180824252
530,26.107136,0.0012037316871
531,26.017728,-0.00230018494597
532,26.017728,-0.00633811685278
533,25.92832,-0.0115601753166
534,25.794208,-0.0152554195019
535,25.6109216,-0.014227972811
536,25.436576,-0.00933835942876
537,25.3874016,-0.00393869898215
538,25.3874016,0.000114195248134
539,25.3874016,0.00152888820779
540,25.3874016,0.000983426843942
541,25.25776,-0.00110376094284
542,25.03424,-0.00354239105089
543,24.7168416,-0.00528563854976
544,24.4933216,-0.00466400047534
545,24.36368,-0.000712858034467
546,24.1803936,0.007319903633
547,24.0462816,0.0152991981349
548,24.0462816,0.0202539904381
549,24.095456,0.0205712704074
550,24.1803936,0.0170488258869
551,24.318976,0.012234543229
552,24.1803936,0.00840085742264
553,24.2698016,0.00657425622983
554,24.095456,0.00667506190111
555,23.91664,0.00818277358425
556,23.871936,0.0114392443487
557,23.8227616,0.0162282908223
558,23.9568736,0.0211532495381
559,24.095456,0.023904708582
560,24.1803936,0.0224198286351
561,24.095456,0.0161162131482
562,24.095456,0.0057553244095
563,24.1803936,-0.00585918095356
564,24.4933216,-0.0154989981484
565,24.766016,-0.0204146452458
566,24.900128,-0.0189639360605
567,25.0744736,-0.0124915371372
568,25.1638816,-0.00360431714
569,25.123648,0.00496114323511
570,24.900128,0.01122131516
571,24.766016,0.0125423762402
572,24.676608,0.00965113235984
573,24.81072,0.00321343153933
574,25.0744736,-0.0052844930959
575,25.25776,-0.0148356839937
576,25.436576,-0.0207548499482
577,25.570688,-0.022487185114
578,25.660096,-0.0197287795608
579,25.570688,-0.0145593772042
580,25.25776,-0.00845578082229
581,24.9403616,-0.00483565946302
582,24.8509536,-0.0038500543904
583,24.900128,-0.0046836041924
584,25.03424,-0.00499895854831
585,25.25776,-0.00159982142675
586,25.2979936,0.0062351221127
587,25.1638816,0.017518110053
588,24.900128,0.0310378585339
589,24.7168416,0.0399408824156
590,24.676608,0.0430174262193
591,24.6274336,0.0392936598129
592,24.5872,0.0304013794123
593,24.5872,0.0187829132032
594,24.8509536,0.00659808918958
595,25.0744736,-0.00349138243535
596,25.2979936,-0.00988439113777
597,25.3874016,-0.0108873620996
598,25.436576,-0.00781694681499
599,25.213056,-0.00297893679957
600,24.9403616,0.00312066576158
601,25.0677951655,0.0103569282159
602,25.5215136,0.0184781903054
603,25.9780851808,0.0283857394563
604,25.9229053619,0.0348341162722
605,25.577621662,0.0348925461966
606,25.1638816,0.0282059995635
607,24.8509536,0.015625868477
608,24.676608,0.00157668591741
609,24.8509536,-0.00856837949069
610,25.213056,-0.0135363168569
611,25.2979936,-0.0123980631835
612,25.25776,-0.00702391715161
613,25.25776,0.000959479081672
614,25.0744736,0.0116632654632
615,24.81072,0.0212693024163
616,24.6274336,0.028744966948
617,24.6274336,0.0325580389716
618,24.5872,0.0321668564455
619,24.81072,0.0282534507068
620,25.03424,0.020534494587
621,25.03424,0.0117222640587
622,25.0744736,0.00308695853027
623,25.123648,-0.00406252881737
624,25.1638816,-0.00727540063113
625,25.2979936,-0.00719628739271
626,25.436576,-0.00449792398778
627,25.48128,-0.000497506174145
628,25.3874016,0.00327951960914
629,25.123648,0.00453127614141
630,24.9403616,0.00343442926256
631,24.766016,-4.15966308289e-05
