time(s),speed(m/s),grade
0,28.118816,-0.000271734820998
1,28.6954976,-0.0043669906189
2,29.1425376,-0.00834971619893
3,29.444505543,-0.0120573744098
4,29.6299995105,-0.0153694492009
5,29.72816,-0.0175981099651
6,29.8130976,-0.0201628753239
7,30.0366176,-0.0221778366819
8,30.309312,-0.0229053190829
9,30.756352,-0.0221099394308
10,31.1095136,-0.0198969454425
11,31.51632,-0.0161720076362
12,31.873952,-0.0114831792815
13,32.18688,-0.00657026072526
14,32.4506336,-0.00102456146888
15,32.63392,0.00404375043554
16,32.7188576,0.00823033794462
17,32.768032,0.0113059201617
18,32.768032,0.0133242275784
19,32.85744,0.0145088507472
20,32.8976736,0.0150649510505
21,32.9423776,0.0151771295347
22,32.9423776,0.015061960616
23,32.8976736,0.0148463290958
24,32.768032,0.0145942887619
25,32.7188576,0.0143475615385
26,32.6741536,0.0141327178908
27,32.7188576,0.0139511238028
28,32.7188576,0.0138183674834
29,32.768032,0.0137345810823
30,32.768032,0.0136791955887
31,32.812736,0.0136605652222
32,32.85744,0.0137016091863
33,32.8976736,0.0138070258595
34,32.991552,0.0139744831308
35,33.08096,0.0142017488581
36,33.1211936,0.0144770891828
37,33.1211936,0.0146999801752
38,33.1658976,0.0147959764475
39,33.08096,0.0146666821877
40,33.08096,0.0141758916179
41,33.036256,0.0130990347791
42,32.8976736,0.0111408628272
43,32.6741536,0.00859007945383
44,32.4953376,0.00535313824744
45,32.4104,0.00200725944238
46,32.365696,-0.00195424727245
47,32.365696,-0.00607248656682
48,32.4506336,-0.0101220292927
49,32.544512,-0.0138623780056
50,32.544512,-0.0171167284775
51,32.589216,-0.0195084970521
52,32.589216,-0.0212683884719
53,32.589216,-0.0218906706423
54,32.4506336,-0.0212371440923
55,32.4104,-0.0192182460822
56,32.4104,-0.016209957108
57,32.4953376,-0.0115806429233
58,32.4953376,-0.0066783087645
59,32.589216,-0.00101855458706
60,32.6741536,0.0041671444438
61,32.768032,0.00889440306194
62,32.6741536,0.0125715197247
63,32.85744,0.0153322283941
64,32.85744,0.0165246296165
65,32.85744,0.0164965881198
66,32.8976736,0.015528769779
67,32.812736,0.0136110937208
68,32.544512,0.0111999395226
69,32.4104,0.00824678096592
70,32.142176,0.00488356840819
71,32.0035936,0.00138826446147
72,32.0482976,-0.00206807033603
73,32.2271136,-0.00522799857188
74,32.589216,-0.0078443228315
75,32.6741536,-0.00980793755113
76,32.6741536,-0.011047230819
77,32.6741536,-0.0116832032568
78,32.6741536,-0.0118647487842
79,32.6741536,-0.0118079602237
80,32.6741536,-0.0116450022996
81,32.768032,-0.0115259188082
82,32.8976736,-0.0115063780322
83,33.036256,-0.0115107238984
84,33.259776,-0.0114467895905
85,33.1658976,-0.0113033663308
86,33.1211936,-0.0111170440532
87,32.768032,-0.0109513715101
88,32.6741536,-0.0109296876857
89,32.589216,-0.0113110441409
90,32.4506336,-0.0121717373367
91,32.320992,-0.0136997610017
92,32.4104,-0.0157002482221
93,32.365696,-0.0181453307247
94,32.4506336,-0.0208033201725
95,32.4104,-0.0233242082534
96,32.544512,-0.0255465741813
97,32.63392,-0.0273427745219
98,32.812736,-0.0290004983509
99,32.85744,-0.0304320405914
100,32.991552,-0.0314389379814
101,33.036256,-0.0322011584056
102,33.3284163423,-0.032683289802
103,33.6129376,-0.0329480152677
104,33.662112,-0.0329752174748
105,33.885632,-0.0327587887751
106,34.0152736,-0.0323533556174
107,34.332672,-0.0317090550845
108,34.556192,-0.0308893097966
109,34.9093536,-0.0299130429639
110,35.271456,-0.0282455210918
111,35.53968,-0.0257959561675
112,35.7632,-0.0224421266218
113,35.942016,-0.018184838819
114,36.0269536,-0.0131109362316
115,36.120832,-0.00756200532528
116,36.120832,-0.00199430495182
117,36.120832,0.00329876944442
118,36.0716576,0.00805123627775
119,35.98672,0.0119692097389
120,35.897312,0.0149624514573
121,35.8034336,0.0169270370852
122,35.8034336,0.0183293550349
123,35.7632,0.019116971592
124,35.718496,0.0194540407528
125,35.494976,0.0194844526041
126,35.226752,0.0193384601298
127,34.9093536,0.0190891075456
128,34.7305376,0.0187921921535
129,34.4623136,0.018441339708
130,34.19856,0.0180042648144
131,34.0599776,0.0175602376749
132,33.97504,0.017069797239
133,33.885632,0.0166129125391
134,34.0599776,0.0162697209685
135,34.109152,0.0160930268665
136,34.2387936,0.0161668826244
137,34.377376,0.0166220508891
138,34.2387936,0.0174423514156
139,33.6129376,0.0187734613697
140,32.9423776,0.0204118828442
141,32.320992,0.0224835137211
142,31.73984,0.0249250499111
143,31.471616,0.0273819616139
144,31.471616,0.0302085480371
145,31.5565536,0.0330134054097
146,31.6012576,0.0353896328064
147,31.650432,0.0376748129434
148,31.650432,0.0394977747843
149,31.73984,0.0406949840849
150,31.73984,0.0414837043768
151,31.695136,0.0417192544514
152,31.73984,0.0414816119481
153,31.8247776,0.0407663965273
154,31.873952,0.0396228357943
155,31.8247776,0.0382376655928
156,32.0482976,0.0363752235107
157,32.0482976,0.0341365886545
158,32.0482976,0.0315545204881
159,32.097472,0.0286675961368
160,32.18688,0.025790787913
161,32.320992,0.0223999133469
162,32.4506336,0.0188880858115
163,32.4953376,0.0153860738974
164,32.4506336,0.0118343487305
165,32.365696,0.00822973530844
166,32.4506336,0.00457108575516
167,32.6741536,0.000853178694475
168,32.8976736,-0.00313194584728
169,32.9423776,-0.00675557547255
170,32.8976736,-0.0108738010987
171,32.8976736,-0.0146815423542
172,32.9423776,-0.0182945213112
173,32.9423776,-0.021460567124
174,32.812736,-0.0241721811008
175,32.812736,-0.0262562240165
176,32.812736,-0.0276638191849
177,32.812736,-0.0280520874058
178,32.85744,-0.0274681725046
179,32.85744,-0.0258816309579
180,32.991552,-0.023368801798
181,33.08096,-0.0200454632795
182,33.1658976,-0.0161787903974
183,33.259776,-0.0119029023926
184,33.438592,-0.00734034454443
185,33.706816,-0.00253929826146
186,33.885632,0.00140182716316
187,33.97504,0.005025723406
188,34.109152,0.00775984328434
189,34.19856,0.00943233140628
190,34.2387936,0.0101908407769
191,34.42208,0.0100073697188
192,34.42208,0.00899163390248
193,34.4623136,0.00700407890995
194,34.332672,0.00418065704316
195,34.109152,0.00100729148423
196,34.0152736,-0.00256488747956
197,33.97504,-0.00671306907691
198,33.885632,-0.0105803895229
199,34.0599776,-0.014712072071
200,34.3214550088,-0.0181673531273
201,34.42208,-0.0215834633861
202,34.377376,-0.0243197860314
203,34.7305376,-0.0266910637652
204,34.86912,-0.0284690911794
205,34.9584945688,-0.0296826832115
206,35.047936,-0.0303690330042
207,35.1328736,-0.0307216437663
208,35.31616,-0.0307775118159
209,35.4010976,-0.0306616545838
210,35.53968,-0.0304645708189
211,35.718496,-0.0302573296095
212,35.8481376,-0.0300821331491
213,35.897312,-0.0299598411104
214,35.897312,-0.0299192578863
215,35.942016,-0.0299409393889
216,35.942016,-0.0300236433271
217,35.8481376,-0.0301492178486
218,35.7632,-0.0302976002011
219,35.6246176,-0.0304493144273
220,35.4010976,-0.0305853869262
221,35.1775776,-0.0306942164076
222,35.271456,-0.0307659868174
223,35.09264,-0.0308164989651
224,35.003232,-0.030852983205
225,34.9093536,-0.0308921968248
226,34.86912,-0.0309514773606
227,34.824416,-0.0310386917489
228,34.86912,-0.0311386723807
229,34.9540576,-0.0311944967276
230,35.047936,-0.0311165254671
231,35.1328736,-0.0307477360304
232,35.1775776,-0.0298929779752
233,35.1775776,-0.0283101026773
234,35.1775776,-0.0258557249591
235,35.1775776,-0.0224851590803
236,35.1775776,-0.0181448255824
237,35.1328736,-0.0129404556742
238,35.003232,-0.00708649082128
239,34.86912,-0.000730876145049
240,34.779712,0.00525823702845
241,34.7305376,0.0114078114417
242,34.6858336,0.0168898582563
243,34.600896,0.0212333148587
244,34.5070176,0.0249989843643
245,34.42208,0.0277422519746
246,34.377376,0.0296266800127
247,34.377376,0.0307129325124
248,34.377376,0.0313734231593
249,34.42208,0.0316876518201
250,34.4623136,0.0318111393498
251,34.5070176,0.0318532677492
252,34.556192,0.0318813420503
253,34.600896,0.031914637218
254,34.600896,0.0319501462814
255,34.600896,0.0319402732753
256,34.9093536,0.0317972807092
257,34.824416,0.0313925537967
258,34.6858336,0.0307074324743
259,34.600896,0.029579874645
260,34.556192,0.0278906323092
261,34.4623136,0.0256635835537
262,34.42208,0.0228593259387
263,34.4623136,0.0195748009853
264,34.5070176,0.0157111117508
265,34.6456,0.0119497820934
266,34.7305376,0.00762022564042
267,34.6858336,0.00319342088792
268,34.6456,-0.00128945793029
269,34.6456,-0.00547444369032
270,34.6456,-0.0102247425002
271,34.5070176,-0.0146253600548
272,34.5070176,-0.0190455991885
273,34.5070176,-0.0237239616052
274,34.4623136,-0.0283181295298
275,34.5070176,-0.0327522561589
276,34.600896,-0.0366207113662
277,34.7305376,-0.0406335753515
278,34.86912,-0.0439042050431
279,34.86912,-0.0469012002029
280,34.9540576,-0.0492481952396
281,35.003232,-0.0507716017017
282,35.047936,-0.0517328134362
283,35.003232,-0.0519261089488
284,35.047936,-0.0513157153627
285,35.047936,-0.0497907022257
286,35.047936,-0.0473230234396
287,35.047936,-0.0438546787267
288,35.1328736,-0.0398101971045
289,35.271456,-0.0344933339211
290,35.31616,-0.0284053093655
291,35.226752,-0.0217294972863
292,35.226752,-0.0154179405077
293,35.09264,-0.00865062151071
294,35.003232,-0.00247162349055
295,34.824416,0.00292185184218
296,34.6456,0.00738032785532
297,34.42208,0.0105852160386
298,34.19856,0.0129579033361
299,34.0599776,0.0146697981532
300,34.0152736,0.0155858736853
301,34.0599776,0.0160259275174
302,34.153856,0.0161462788451
303,34.19856,0.016105713199
304,34.2387936,0.016093986087
305,34.19856,0.0162638354895
306,34.0152736,0.0167592000211
307,33.97504,0.0175667020313
308,33.97504,0.0186856422522
309,33.885632,0.0201423484314
310,33.930336,0.0216539898196
311,33.885632,0.0233519442515
312,33.885632,0.0248529758459
313,33.930336,0.0262142639075
314,33.930336,0.0274678117366
315,33.8364576,0.0283704100341
316,33.7917536,0.0290864963936
317,33.75152,0.0295008449133
318,33.662112,0.0297404839473
319,33.6129376,0.0298319446292
320,33.6129376,0.0298536928321
321,33.5682336,0.0298546461592
322,33.5682336,0.0298750751335
323,33.5682336,0.0299349083676
324,33.5682336,0.0300438101616
325,33.5682336,0.0301952653315
326,33.5682336,0.0303814068705
327,33.528,0.0305626977627
328,33.528,0.0307364496035
329,33.528,0.0308810222137
330,33.528,0.0310193191977
331,33.528,0.0311281366304
332,33.5682336,0.0312259949215
333,33.5682336,0.0313255545602
334,33.5682336,0.0314055044618
335,33.528,0.0314502966924
336,33.3894176,0.0314094911595
337,33.30448,0.031233172826
338,33.1211936,0.0308775204721
339,32.18688,0.0302954811051
340,32.142176,0.0294592092025
341,32.4104,0.0282632569666
342,32.544512,0.0265455725822
343,32.6997595511,0.02449957882
344,32.812736,0.0220368401917
345,32.812736,0.0191876525452
346,32.8976736,0.0158448235636
347,33.1211936,0.0125433334652
348,33.30448,0.00914241341414
349,33.438592,0.00546203130236
350,33.662112,0.00222780958124
351,33.885632,-0.000654633117977
352,34.153856,-0.00319813651926
353,34.42208,-0.00511570600959
354,34.6456,-0.00620944389922
355,34.7305376,-0.00663085973715
356,34.824416,-0.00625653902357
357,34.824416,-0.00530523211483
358,34.779712,-0.00378675407939
359,34.6858336,-0.00213364369391
360,34.6858336,-0.000211841817501
361,34.7305376,0.00153006735291
362,34.6858336,0.00319293655654
363,34.779712,0.00493035746082
364,34.7305376,0.00658916159662
365,34.6456,0.00814836899981
366,34.556192,0.00960345476359
367,34.332672,0.0110633514179
368,34.109152,0.0121710392372
369,33.885632,0.0129085133705
370,33.706816,0.0131271181205
371,33.5682336,0.0126423211572
372,33.438592,0.0114697543444
373,33.438592,0.00959802522792
374,33.483296,0.00707849440006
375,33.6129376,0.00400561844401
376,33.662112,0.000606434553919
377,33.75152,-0.00320684036205
378,33.885632,-0.00687598081011
379,33.885632,-0.0106637638168
380,33.885632,-0.0137531151075
381,33.97504,-0.016301864257
382,34.0599776,-0.018288836366
383,34.2387936,-0.0192368677077
384,34.377376,-0.0192343492373
385,34.5070176,-0.0181337130416
386,34.556192,-0.0161697067069
387,34.86912,-0.0130798774803
388,35.1775776,-0.00919733701669
389,35.31616,-0.00485800898197
390,35.31616,-0.000248939556016
391,35.271456,0.00429453031341
392,35.271456,0.00806890259159
393,35.226752,0.0115187314575
394,35.1328736,0.0141900048384
395,35.047936,0.0161551041093
396,35.003232,0.0174847824292
397,35.003232,0.018307432175
398,34.86912,0.01873836355
399,34.6858336,0.0189235781365
400,34.556192,0.0189553910238
401,34.4623136,0.0189037693958
402,34.4623136,0.0188109391565
403,34.5070176,0.01870787089
404,34.556192,0.0186139754871
405,34.600896,0.0185097299151
406,34.6456,0.0183761938041
407,34.7305376,0.0181648324917
408,34.7305376,0.0177995538882
409,34.779712,0.0171843771295
410,34.7305376,0.0162855548316
411,34.6858336,0.0149297300841
412,34.6456,0.0130935727839
413,34.6456,0.0110361449111
414,34.6456,0.00844099882187
415,34.556192,0.00544680304821
416,34.6221006918,0.00239149297005
417,34.7717562467,-0.000697536675853
418,34.824416,-0.00381290136357
419,34.7305376,-0.00669085036327
420,34.779712,-0.00900139383404
421,34.779712,-0.0111384390434
422,34.779712,-0.0128394462435
423,34.7305376,-0.0140230406151
424,34.86912,-0.0149388607725
425,34.9776923242,-0.0154821765932
426,35.09264,-0.0157771444974
427,35.31616,-0.0158087858482
428,35.5799136,-0.0156413667627
429,35.8034336,-0.0153709835913
430,36.0269536,-0.0150264875079
431,36.165536,-0.0146772454082
432,36.344352,-0.0143614721254
433,36.4739936,-0.0141033921601
434,36.4739936,-0.0139092157036
435,36.344352,-0.0137761052889
436,36.21024,-0.0136969451617
437,36.0269536,-0.0136647232001
438,35.942016,-0.0136733492605
439,35.8481376,-0.013715788345
440,35.7632,-0.0137776648193
441,35.718496,-0.0138435292362
442,35.673792,-0.0138913412518
443,35.673792,-0.0139048626071
444,35.5799136,-0.0138761870996
445,35.6246176,-0.0138078366408
446,35.5799136,-0.013700017887
447,35.5799136,-0.0135454357039
448,35.3563936,-0.0133367319662
449,35.047936,-0.013062748699
450,34.6858336,-0.0127518482684
451,34.42208,-0.0123580367761
452,34.2834976,-0.0119658258638
453,34.153856,-0.0115326870202
454,34.109152,-0.0111580693763
455,34.109152,-0.0108252328345
456,34.2387936,-0.0105442424225
457,34.153856,-0.0102915627923
458,34.153856,-0.0101040595609
459,34.153856,-0.00993220812249
460,34.153856,-0.00978282397721
461,34.109152,-0.00966952944659
462,34.0599776,-0.00958095788624
463,34.0152736,-0.00951826628219
464,34.0152736,-0.0094986043369
465,33.97504,-0.00952258933286
466,33.8364576,-0.00960210616355
467,33.662112,-0.00972426054955
468,33.3894176,-0.00988792554511
469,33.215072,-0.0100971524162
470,32.9423776,-0.0103053754487
471,32.85744,-0.0105150762784
472,32.7188576,-0.0107116697301
473,32.589216,-0.0108830041828
474,32.4953376,-0.0110196846443
475,32.320992,-0.0111038326246
476,32.18688,-0.0111064071194
477,32.0035936,-0.0109815110617
478,31.695136,-0.0106601444935
479,31.471616,-0.0101176730523
480,31.3777376,-0.00926343891525
481,31.51632,-0.00788996847569
482,31.695136,-0.00597329603678
483,32.0482976,-0.00371941524771
484,32.320992,-0.000739218664838
485,32.63392,0.00266721366285
486,32.8976736,0.00619758005241
487,33.08096,0.0101073331325
488,33.259776,0.0135489334096
489,33.438592,0.016663771427
490,33.528,0.0192754789008
491,33.662112,0.0213336263483
492,33.75152,0.0229152744753
493,33.8364576,0.0239738341988
494,33.97504,0.0245556487817
495,34.0152736,0.0248613183536
496,34.0599776,0.0249199519965
497,34.153856,0.024814409806
498,34.2387936,0.0245807571776
499,34.332672,0.0242050020375
500,34.5070176,0.0235951164656
501,34.600896,0.0228332230756
502,34.6858336,0.021756831745
503,34.7305376,0.0204274496141
504,34.779712,0.0189946348112
505,34.779712,0.0172255991754
506,34.779712,0.0152726482437
507,34.824416,0.0131859582239
508,34.7305376,0.0110006892279
509,34.6456,0.00888509904215
510,34.6858336,0.00658925562642
511,34.6565219413,0.00434064197429
512,34.5904069466,0.00210202338623
513,34.600896,-3.70741701343e-05
514,34.7305376,-0.00238115422533
515,34.779712,-0.00449120115916
516,34.6858336,-0.00677183870375
517,34.556192,-0.00885458045845
518,34.377376,-0.0111234317571
519,34.153856,-0.0131290148529
520,34.0152736,-0.0152673242983
521,34.0599776,-0.0172083982092
522,34.19856,-0.0192258330844
523,34.153856,-0.0210743654725
524,34.0152736,-0.0225963708645
525,33.97504,-0.0240180148892
526,34.0599776,-0.0250676702196
527,34.0152736,-0.0259480679528
528,33.930336,-0.0265501725438
529,33.75152,-0.0269658558839
530,33.706816,-0.0272369476584
531,33.706816,-0.0274176980225
532,33.8364576,-0.027522599513
533,33.97504,-0.0275972501328
534,34.109152,-0.0276570188569
535,34.109152,-0.0277107734174
536,34.19856,-0.0277395014256
537,34.332672,-0.027715403741
538,34.5070176,-0.0275696130318
539,34.779712,-0.027204653945
540,35.09264,-0.0265053979213
541,35.31616,-0.0253443621132
542,35.6246176,-0.0236007518197
543,35.897312,-0.0211708505522
544,35.98672,-0.0179864457928
545,35.942016,-0.0138637458042
546,35.8481376,-0.00965736782255
547,35.5799136,-0.00532700322619
548,35.4010976,-0.00119044034163
549,35.1328736,0.00245491632275
550,34.9093536,0.00548051720885
551,34.824416,0.00770481848501
552,34.6858336,0.00895419292312
553,34.600896,0.0094783178264
554,34.600896,0.00931084672683
555,34.6456,0.0085608947415
556,34.779712,0.00718858472194
557,34.824416,0.00552877620841
558,34.9540576,0.00341334407673
559,34.9540576,0.00133390801152
560,34.824416,-0.000920360380623
561,34.600896,-0.00281625211127
562,34.556192,-0.00458550231228
563,34.556192,-0.00588342362871
564,34.7305376,-0.00686401607877
565,34.779712,-0.00759154243981
566,34.7305376,-0.00796442081502
567,34.600896,-0.00807338856059
568,34.377376,-0.00787212639169
569,34.19856,-0.0073944277986
570,34.2834976,-0.00651636990859
571,34.5070176,-0.00534014920313
572,34.779712,-0.0035937181739
573,35.09264,-0.00157849124173
574,35.226752,0.00101437031299
575,35.1775776,0.00375907618958
576,35.226752,0.00658811326978
577,35.3563936,0.00932659024241
578,35.31616,0.0115390537274
579,35.450272,0.0135126621662
580,35.4010976,0.0149892152966
581,35.5799136,0.0159831829154
582,35.5799136,0.0165817096975
583,35.5799136,0.0168774306847
584,35.494976,0.0169838663145
585,35.271456,0.0169913944998
586,35.09264,0.016962696624
587,35.09264,0.0169384006534
588,35.09264,0.0169568921589
589,35.047936,0.0170704824157
590,35.047936,0.0172992413407
591,35.1328736,0.0177240526845
592,35.226752,0.0183382197029
593,35.3563936,0.019107355547
594,35.494976,0.0199667443701
595,35.494976,0.020816137084
596,35.53968,0.0215946154119
597,35.4010976,0.0221703810914
598,35.226752,0.0225619477819
599,35.1775776,0.0227913534086
600,35.09264,0.0228985578237
601,35.271456,0.0229285728142
602,35.271456,0.0229296548489
603,35.31616,0.0229429416268
604,35.3563936,0.0230008133846
605,35.494976,0.0231188381022
606,35.53968,0.0232947394288
607,35.53968,0.0235033218408
608,35.450272,0.0237347364749
609,35.4010976,0.0239738833024
610,35.494976,0.0241859432127
611,35.53968,0.0243808818908
612,35.450272,0.024484252732
613,35.53968,0.0244855389138
614,35.31616,0.0243215525922
615,35.1328736,0.0239220263149
616,35.047936,0.0231994277992
617,35.09264,0.0220793972763
618,35.1775776,0.0206492883478
619,35.271456,0.0186033901462
620,35.31616,0.016064324411
621,35.3563936,0.0130746229814
622,35.3563936,0.0100060638281
623,35.271456,0.0061766382182
624,35.226752,0.00241729055382
625,35.09264,-0.00150228837224
626,35.003232,-0.00512948393569
627,35.003232,-0.00907055961796
628,35.003232,-0.0129115119477
629,35.003232,-0.0162220978173
