time(s),speed(m/s),grade
0,23.91664,0.0117113905604
1,24.2698016,0.0113780703428
2,24.81072,0.0112052048611
3,25.1638816,0.0112629109477
4,25.48128,0.0115877050402
5,25.7450336,0.0123123940955
6,26.017728,0.0132264265165
7,26.2814816,0.0149915486186
8,26.554176,0.0177393042585
9,26.688288,0.0210821700157
10,26.8224,0.0257680445421
11,26.8626336,0.0294627176018
12,26.8224,0.0306331384968
13,26.8626336,0.0304178874499
14,26.911808,0.0299710501311
15,26.9520416,0.0304037699412
16,26.9520416,0.0310097888473
17,26.9520416,0.0317497911631
18,26.9520416,0.031255286081
19,27.001216,0.0307278714509
20,27.001216,0.0299516830024
21,27.04592,0.029035618185
22,27.0861536,0.0296532304071
23,27.1755616,0.0302849247687
24,27.224736,0.0303311594185
25,27.26944,0.0297740214609
26,27.358848,0.0289323556063
27,27.448256,0.0274555447871
28,27.49296,0.025738690126
29,27.5331936,0.0237341090917
30,27.582368,0.0215520391066
31,27.49296,0.0189761287171
32,27.26944,0.0165841483172
33,26.911808,0.0140225400903
34,26.777696,0.0114516042466
35,26.7285216,0.00892472248777
36,26.6391136,0.00649597355645
37,26.688288,0.00421974536656
38,26.688288,0.00213344987907
39,26.8224,-8.00285352539e-05
40,26.911808,-0.00334564701402
41,27.001216,-0.00821890599522
42,27.1755616,-0.012616847771
43,27.358848,-0.0161766344075
44,27.49296,-0.0186513307031
45,27.582368,-0.020184080666
46,27.582368,-0.0206133738718
47,27.3096736,-0.0208062269624
48,26.5050016,-0.021442655964
49,24.766016,-0.0220971935288
50,22.977856,-0.0226547858831
51,22.12848,-0.0232552461635
52,21.994368,-0.0238943992029
53,21.5875616,-0.0243180048915
54,21.5875616,-0.0243894705906
55,22.79904,-0.0240351841539
56,22.977856,-0.023148879616
57,23.5098336,-0.0223022840777
58,24.318976,-0.0216644335977
59,24.81072,-0.0212330124687
60,25.48128,-0.0210185807737
61,26.017728,-0.0209314902333
62,26.59888,-0.0205278270108
63,27.135328,-0.0196622423938
64,27.671776,-0.0184505652303
65,28.16352,-0.0173598966662
66,28.61056,-0.0168485556034
67,29.012896,-0.0169556590505
68,29.28112,-0.0170034633712
69,29.5448736,-0.0170502355005
70,29.8130976,-0.0172613336307
71,29.9919136,-0.017495246654
72,30.130496,-0.0173800077252
73,30.085792,-0.0168357323166
74,29.862272,-0.01610687742
75,29.72816,-0.0154913121622
76,29.72816,-0.0153166157721
77,29.5448736,-0.0163024295282
78,29.415232,-0.0182234944148
79,29.3213536,-0.0208834661531
80,29.415232,-0.0241565267914
81,29.459936,-0.0275466612155
82,29.638752,-0.0300149938641
83,29.72816,-0.0311619360179
84,29.95168,-0.0313790099719
85,30.0366176,-0.0309463219459
86,30.1752,-0.0293616431483
87,30.2154336,-0.0266049743047
88,30.354016,-0.0228968991653
89,30.309312,-0.0178181966711
90,30.2154336,-0.0119196793678
91,30.0741683124,-0.00621810901288
92,29.8933829476,2.73193376621e-05
93,29.7032100666,0.00551561434721
94,29.5337822303,0.00945121709877
95,29.415232,0.0114751689321
96,29.28112,0.0120677215976
97,28.8743136,0.012136500235
98,28.476448,0.012051014485
99,28.118816,0.0119970500264
100,28.029408,0.0119952278866
101,27.895296,0.0118643090662
102,27.895296,0.0115307319456
103,27.8800463207,0.0113697861573
104,27.8075079646,0.0115216960112
105,27.7006316261,0.0117432878977
106,27.582368,0.0118793298463
107,27.49296,0.0119761754794
108,27.49296,0.0121343446892
109,27.5331936,0.0121037208557
110,27.6226016,0.0119567377043
111,27.3990816,0.0117351970824
112,27.1755616,0.0115579747519
113,27.135328,0.0114472200403
114,27.135328,0.011374568675
115,27.135328,0.0110885400213
116,26.7285216,0.0106409218231
117,26.107136,0.00999303174788
118,25.6109216,0.00950910627197
119,25.213056,0.00880087427657
120,24.9403616,0.00783200163622
121,24.4355398246,0.00615643645681
122,23.8243036105,0.00396828141305
123,23.3922299912,0.00164043565086
124,23.424896,-0.000939704613359
125,23.871936,-0.00385109492268
126,23.91664,-0.00626791267761
127,24.229568,-0.00891291490223
128,24.4039136,-0.0120784947333
129,24.542496,-0.014936781922
130,24.542496,-0.0177557609635
131,24.676608,-0.0205392849116
132,24.8509536,-0.0235204400365
133,25.1638816,-0.0259497526151
134,25.436576,-0.0279489916731
135,25.7048,-0.0292049393343
136,25.9685536,-0.0307145450601
137,26.2814816,-0.0319504970833
138,26.59888,-0.03242303724
139,26.911808,-0.032152723335
140,27.135328,-0.0315423577856
141,27.3096736,-0.030469831694
142,27.49296,-0.0291886807062
143,27.582368,-0.0285424736236
144,27.6226016,-0.0285523928197
145,27.6226016,-0.0287979710668
146,27.582368,-0.0290196038278
147,27.671776,-0.0292389796816
148,27.7567136,-0.0287177992196
149,27.9802336,-0.026174124955
150,28.029408,-0.0211523992055
151,28.252928,-0.0155926207309
152,28.5166816,-0.00905812942476
153,28.6954976,-0.00339591683426
154,28.83408,0.00135637140272
155,28.8743136,0.0037655467181
156,28.968192,0.00443308902416
157,28.6954976,0.00475584926477
158,28.5166816,0.00493835521578
159,28.2931616,0.00580885885356
160,28.16352,0.00769057265873
161,28.0696416,0.0098388342047
162,28.118816,0.0117837561622
163,28.2037536,0.0136283676909
164,28.342336,0.015063362903
165,28.4272736,0.0162982914873
166,28.565856,0.016898223308
167,28.6954976,0.0170280866832
168,28.83408,0.0167931655438
169,29.012896,0.0165041842713
170,29.1425376,0.0164711893155
171,29.191712,0.0168209531667
172,29.236416,0.0178770813344
173,29.28112,0.0201844172428
174,29.28112,0.023142897264
175,29.28112,0.0256748314727
176,29.236416,0.0276929167587
177,29.191712,0.0285126570682
178,29.0576,0.0286189390725
179,29.012896,0.0282716036918
180,29.012896,0.0280738736853
181,28.968192,0.0278147646488
182,28.9190176,0.027592748223
183,28.789376,0.0273175657935
184,28.6954976,0.0274474845345
185,28.5166816,0.0275513445928
186,28.342336,0.0276718538728
187,28.2037536,0.0279071721671
188,28.118816,0.0283081000838
189,27.9802336,0.0286505189173
190,28.029408,0.0287317625878
191,27.8461216,0.028544727373
192,27.805888,0.028399708419
193,27.805888,0.0279230378291
194,27.805888,0.0271781882707
195,27.7567136,0.0259540681846
196,27.805888,0.0237665501267
197,27.7567136,0.0211825532354
198,27.7567136,0.0178702973449
199,27.7567136,0.0138923454055
200,27.582368,0.0103491584694
201,27.358848,0.00715169424909
202,27.26944,0.00414669657721
203,27.0340045954,0.00112775753036
204,26.911808,-0.00243010964955
205,27.04592,-0.00663745189489
206,26.8626336,-0.0100622564913
207,26.911808,-0.0127576247322
208,26.8224,-0.0145846163653
209,26.777696,-0.0155316804105
210,26.777696,-0.0158589954697
211,26.7285216,-0.0159173189962
212,26.59888,-0.016030463202
213,26.554176,-0.0161019723855
214,26.5050016,-0.0161222847261
215,26.4155936,-0.0161187206641
216,26.464768,-0.0161594597793
217,26.4155936,-0.0164456400161
218,26.4155936,-0.0169313814103
219,26.59888,-0.0169376177582
220,26.5050016,-0.0162364016652
221,26.6391136,-0.0155835321388
222,26.688288,-0.0155448255244
223,26.7285216,-0.0157391640933
224,26.8224,-0.0157645566203
225,26.911808,-0.0156001079667
226,26.8626336,-0.0155403336046
227,26.777696,-0.0157440930744
228,26.777696,-0.016004727902
229,26.7285216,-0.0163025671289
230,26.8626336,-0.0164916910058
231,27.04592,-0.0166059816073
232,27.0861536,-0.0166179513404
233,27.224736,-0.0166047578359
234,27.358848,-0.0165814572552
235,27.5331936,-0.0163347244543
236,27.671776,-0.0158908624828
237,27.805888,-0.0155843087307
238,28.0696416,-0.0153518146947
239,28.342336,-0.01504285334
240,28.61056,-0.0144874167585
241,28.83408,-0.0133966088907
242,29.012896,-0.0117522118274
243,29.1425376,-0.00874377313636
244,29.236416,-0.00466672316027
245,29.28112,-0.000657071020484
246,29.28112,0.00360596236768
247,29.191712,0.00720071446295
248,29.1425376,0.00928437775802
249,29.012896,0.0101267542166
250,28.9190176,0.00956088854883
251,28.83408,0.00841053839017
252,28.789376,0.00739262972795
253,28.83408,0.00719347561278
254,28.9190176,0.00812161954144
255,28.8743136,0.00940345931162
256,28.789376,0.0103794920755
257,28.744672,0.0110742347374
258,28.5166816,0.0112942417009
259,28.029408,0.01114059418
260,27.5331936,0.0109176814311
261,27.26944,0.0107768980733
262,27.26944,0.0112624739431
263,27.3096736,0.0117523215295
264,27.326926775,0.0118807681858
265,27.358848,0.0114987656035
266,27.448256,0.0111527350248
267,27.5331936,0.0111529250897
268,27.3990816,0.0116378964971
269,27.3096736,0.0118810017306
270,27.224736,0.0120433959345
271,27.135328,0.0120877734455
272,27.1755616,0.0121258490354
273,27.0861536,0.0120971475822
274,27.1755616,0.0121139737188
275,27.1755616,0.0120383446044
276,27.135328,0.0117121828696
277,27.04592,0.0112314863756
278,26.911808,0.0109230455212
279,26.911808,0.0108174202863
280,26.8224,0.0112320311325
281,26.777696,0.0123465862468
282,26.6391136,0.0146264866506
283,26.4155936,0.0185275733372
284,26.15184,0.0228121859585
285,25.9685536,0.0271606973923
286,25.794208,0.0296418745816
287,25.7048,0.0307191125697
288,25.660096,0.0310643225434
289,25.6109216,0.0313692468477
290,25.570688,0.0315545731805
291,25.6109216,0.0315985965522
292,25.570688,0.0315226178649
293,25.5215136,0.0312862326004
294,25.5215136,0.0307969093866
295,25.48128,0.0302408467569
296,25.5215136,0.0297462904474
297,25.570688,0.0294635016709
298,25.6109216,0.0293877438718
299,25.7450336,0.0293631559799
300,25.347168,0.0293439345746
301,24.676608,0.0294299645274
302,23.9568736,0.0294715709687
303,23.02256,0.0294082712643
304,21.90496,0.0292762606786
305,21.2344,0.0289785452357
306,20.78736,0.0284141899264
307,20.3805536,0.0273224874048
308,19.848576,0.0255188126661
309,19.401536,0.0234957807036
310,19.2629536,0.0209898321053
311,19.088608,0.0190976187054
312,18.8159136,0.017599945827
313,18.730976,0.0163210918029
314,18.8159136,0.0152614953175
315,18.9992,0.014047824057
316,19.1288416,0.0124129293962
317,18.865088,0.0107550517045
318,18.1453536,0.00879506567871
319,17.523968,0.00659478589458
320,17.1171616,0.00434084204869
321,16.853408,0.00261525126028
322,16.629888,0.00082205581389
323,16.272256,-0.000863571799993
324,14.707616,-0.00247022158784
325,12.785344,-0.00418635986776
326,12.0209056,-0.00561034910934
327,11.5291616,-0.00705372009598
328,10.72896,-0.00811551469322
329,10.4076500075,-0.00942701108901
330,10.50544,-0.0103068442549
331,10.6797856,-0.0111144136416
332,10.773664,-0.012087039431
333,10.9033056,-0.0127195185163
334,10.9033056,-0.0134044966836
335,10.818368,-0.0137887499968
336,10.95248,-0.0141297317603
337,11.220704,-0.0143083257798
338,11.7973856,-0.0143847957935
339,12.159488,-0.0144940487073
340,12.96416,-0.0146822168154
341,13.679424,-0.0148213378434
342,14.707616,-0.0149102886936
343,15.959328,-0.0148989784666
344,17.076928,-0.0147779501752
345,18.1453536,-0.0146784966337
346,19.088608,-0.0147462121359
347,19.982688,-0.014946371179
348,20.876768,-0.0152888722834
349,21.68144,-0.015602712613
350,22.441408,-0.015747460829
351,23.0627936,-0.0155897521943
352,23.69312,-0.0151293500226
353,24.229568,-0.0143454102485
354,24.766016,-0.0128669093664
355,25.123648,-0.0112386480103
356,25.6109216,-0.00968160908706
357,25.92832,-0.00813651173837
358,26.241248,-0.0064318237375
359,26.554176,-0.00451654027051
360,26.8626336,-0.00253909878967
361,27.1755616,-0.000446393275778
362,27.3096736,0.0018722567742
363,27.3990816,0.00386166243025
364,27.5331936,0.00556564419814
365,27.6410200673,0.00678825533912
366,27.671776,0.00676697799805
367,27.671776,0.00583087202135
368,27.8461216,0.0042179152271
369,27.94,0.00300050017481
370,28.0696416,0.00328258280989
371,28.252928,0.00500036192562
372,28.38704,0.00703185191948
373,28.5166816,0.0093181413334
374,28.2435002628,0.0112926105717
375,27.94,0.0134786303353
376,28.0497916481,0.01613618055
377,28.334920391,0.0179705225149
378,28.38704,0.0186712555844
379,28.0696416,0.0181416708497
380,28.029408,0.0166719787263
381,28.0748569732,0.0142866217078
382,28.1368627246,0.0117315469137
383,28.252928,0.00940667127945
384,28.38704,0.00684200964833
385,28.342336,0.00428782189406
386,28.2931616,0.00172075020083
387,28.252928,-0.000851082896367
388,28.2931616,-0.00342250085067
389,28.2931616,-0.00595354283205
390,28.38704,-0.00848834386387
391,28.565856,-0.0110472444161
392,28.6954976,-0.0132750339612
393,28.83408,-0.0163823256502
394,28.789376,-0.0211821180905
395,28.565856,-0.0253602092036
396,28.38704,-0.0281581821375
397,28.118816,-0.0304986169579
398,27.895296,-0.0317837587033
399,27.94,-0.0325601586848
400,27.671776,-0.0329093263732
401,27.7567136,-0.0332617144244
402,27.805888,-0.0336248653364
403,27.582368,-0.0340080040599
404,27.49296,-0.0342924069526
405,27.448256,-0.0344808698863
406,27.358848,-0.0346606703662
407,27.358848,-0.0349664258526
408,27.448256,-0.0352080124544
409,27.6226016,-0.0352189582943
410,27.671776,-0.0348580449921
411,27.6226016,-0.0343814619493
412,27.5331936,-0.0342264138264
413,27.3096736,-0.0343651066617
414,27.358848,-0.0344071588219
415,27.224736,-0.034007534222
416,27.358848,-0.0329342373367
417,27.4095748337,-0.0307297807916
418,27.3380321256,-0.027376737011
419,27.26944,-0.0229153736295
420,27.3096736,-0.0180435605191
421,27.3990816,-0.0136917464442
422,27.3096736,-0.0103783319794
423,27.3096736,-0.00891155820538
424,27.0861536,-0.00861402534654
425,26.688288,-0.00877440042572
426,26.412837173,-0.00895752810458
427,26.241248,-0.00852465318688
428,26.017728,-0.00790712423416
429,25.6109216,-0.0075545202578
430,25.48128,-0.00738304052341
431,25.5215136,-0.00693883514453
432,25.48128,-0.00646194064991
433,25.347168,-0.00633816123369
434,24.989536,-0.00641637607614
435,24.900128,-0.0065094513102
436,24.766016,-0.0065718403297
437,24.81072,-0.00660433694191
438,24.9403616,-0.00665525630954
439,24.989536,-0.00686042416407
440,25.0744736,-0.00723820105142
441,25.213056,-0.00769063129147
442,24.989536,-0.00788697264708
443,24.7168416,-0.00774769709406
444,24.6274336,-0.00737611996651
445,24.6274336,-0.00719449013323
446,24.5872,-0.00740295985903
447,24.81072,-0.0077771424089
448,25.03424,-0.00800074276058
449,25.123648,-0.00795398748778
450,25.25776,-0.00786525247668
451,25.3874016,-0.0079484175132
452,25.48128,-0.00846886404267
453,25.3874016,-0.00924993438159
454,25.48128,-0.0101376886308
455,25.436576,-0.0106382990805
456,25.5215136,-0.0108708851573
457,25.4993068651,-0.0106154974217
458,25.2979936,-0.00989622275163
459,25.0744736,-0.00875148009337
460,25.213056,-0.00719226593767
461,25.347168,-0.0057098713829
462,25.7048,-0.00385056771556
463,25.6109216,-0.00189113614964
464,25.5215136,0.000742414101282
465,25.6109216,0.00312029714053
466,25.8344416,0.00515025975979
467,25.660096,0.00617326431225
468,25.347168,0.00642384149942
469,25.2979936,0.00644056528003
470,25.347168,0.00644056506726
471,25.436576,0.0062341314088
472,25.660096,0.00595848904263
473,25.883616,0.00597749034114
474,26.15184,0.00638304306665
475,26.330656,0.00710977267905
476,26.107136,0.00776739679015
477,25.7450336,0.00798944655598
478,25.347168,0.00756913435162
479,25.03424,0.00714089418913
480,24.8509536,0.00692268579455
481,24.7168416,0.0067599100385
482,24.6274336,0.00656519344818
483,24.6274336,0.0063306597578
484,24.7168416,0.00592797794668
485,24.8509536,0.00560445804035
486,24.989536,0.00555759959661
487,25.0744736,0.00568421095064
488,25.1638816,0.00591433552774
489,25.25776,0.00598021995091
490,25.347168,0.00584504444214
491,25.436576,0.00564935092852
492,25.570688,0.00546482749561
493,25.7048,0.00534528062698
494,25.883616,0.00528682359741
495,25.92832,0.00532847381219
496,25.92832,0.00546679721385
497,25.90242656,0.00569707417437
498,25.8344416,0.00602088535617
499,25.794208,0.00651395940592
500,25.9685536,0.007086905639
501,25.9685536,0.00774093882861
502,25.9685536,0.00848357298753
503,26.017728,0.00944569305551
504,26.017728,0.0105062755006
505,26.017728,0.0117041487897
506,25.883616,0.0131014804015
507,25.7450336,0.0144903284819
508,25.6109216,0.0160137814026
509,25.48128,0.0171137741097
510,25.3874016,0.0175922068817
511,25.0744736,0.0172817301608
512,24.5872,0.0170111628756
513,24.006048,0.0168393643251
514,23.3757216,0.0166645438872
515,22.9286816,0.0164339109964
516,22.3922336,0.0162945376243
517,22.307296,0.0162814579074
518,22.352,0.0163460289228
519,22.352,0.0166415584638
520,22.441408,0.017026932476
521,22.6157536,0.0173865042249
522,22.8392736,0.0174631641479
523,23.0627936,0.0168940157095
524,23.24608,0.0153483412762
525,23.424896,0.0129852579989
526,23.5992416,0.0101526239381
527,23.782528,0.00727914876077
528,23.871936,0.00464585188508
529,23.8227616,0.00211165922615
530,23.8227616,-0.000422555655095
531,24.006048,-0.00301690627333
532,24.1803936,-0.00566651488548
533,24.453088,-0.0088638886149
534,24.676608,-0.0118907947056
535,24.900128,-0.0148254228867
536,25.123648,-0.0174496565405
537,25.436576,-0.0198564413528
538,25.436576,-0.0214896913961
539,25.660096,-0.0228340835133
540,25.92832,-0.0235915611134
541,25.7048,-0.0240080671313
542,25.570688,-0.0241377889784
543,25.347168,-0.0241434722499
544,25.1746645327,-0.0241194366796
545,25.1005800259,-0.0241499118355
546,25.1039679061,-0.024235740781
547,25.1638816,-0.0243356080485
548,25.1638816,-0.0244061648468
549,24.8509536,-0.024390671484
550,24.676608,-0.0242723501537
551,24.5872,-0.0241181467146
552,24.4933216,-0.0240434946826
553,24.8509536,-0.0240488426507
554,25.0744736,-0.0239750101368
555,25.25776,-0.0236688136069
556,25.1638816,-0.0233333029697
557,25.123648,-0.0232797970174
558,25.5215136,-0.0234639409185
559,26.0579616,-0.0237721790578
560,26.59888,-0.0241720303561
561,27.04592,-0.0245707941611
562,27.3096736,-0.0247666782527
563,27.582368,-0.0246397315981
564,27.805888,-0.0239056300557
565,27.8461216,-0.0219168126033
566,27.8475044174,-0.018920841634
567,27.71648,-0.0150664957606
568,27.358848,-0.0101813093442
569,26.9520416,-0.00566954474008
570,26.554176,-0.00121931726359
571,26.2814816,0.00316183347639
572,26.15184,0.00703826680651
573,26.0579616,0.0113948546845
574,25.6947581359,0.0156109037151
575,25.1963511092,0.0190620375324
576,24.8269973279,0.0223207912389
577,24.8509536,0.0244510976449
578,25.3647747915,0.0256881768425
579,25.794208,0.026051929433
580,25.7450336,0.0259044193066
581,25.883616,0.0255883576594
582,25.9685536,0.0252713162284
583,25.883616,0.0250812544209
584,25.9685536,0.0250358907744
585,25.7048,0.0251100212317
586,25.7048,0.0252003488462
587,25.7450336,0.0253846489174
588,25.570688,0.0255087941535
589,25.570688,0.0255708995406
590,25.2979936,0.0256447957231
591,25.0744736,0.0257910035682
592,25.213056,0.0258947130412
593,25.2979936,0.0258380245354
594,25.436576,0.0257708406221
595,25.5908494653,0.0257977967682
596,25.660096,0.0258874110615
597,25.48128,0.0257959602915
598,24.989536,0.0253555149682
599,24.9403616,0.0243457581972
600,24.542496,0.0222143223425
601,24.229568,0.0195352045996
602,23.91664,0.015977569226
603,23.559008,0.0127427012113
604,23.4696,0.00954195790485
605,23.559008,0.00627640143772
606,23.7333536,0.00313709834032
607,24.229568,0.000131111455867
608,24.4933216,-0.00309793977313
609,24.900128,-0.00596980942022
610,25.213056,-0.00911440659496
611,25.5215136,-0.0129668140976
612,25.5215136,-0.0162065829173
613,25.6109216,-0.0190820104297
614,26.017728,-0.0205937529666
615,26.5050016,-0.0210319343721
616,26.59888,-0.0201772630238
617,26.7285216,-0.0181165904831
618,26.8224,-0.0149405981874
619,26.8050940989,-0.0109118431379
620,26.554176,-0.00689445889787
621,26.107136,-0.00206000660409
622,25.92832,0.00299149395849
623,25.660096,0.00756105592583
624,25.5215136,0.0125569486266
625,25.48128,0.0166279707289
626,25.92832,0.0207110779716
