time(s),speed(m/s),grade
0,23.5098336,0.0403542113317
1,24.0462816,0.0406626257825
2,24.542496,0.0407556239075
3,25.03424,0.0407033619551
4,25.347168,0.0405067082892
5,25.48128,0.0398294668779
6,25.436576,0.0385984090763
7,25.436576,0.0363165267388
8,25.3874016,0.0335899892413
9,25.2979936,0.0303964954023
10,24.9403616,0.0264144168639
11,24.453088,0.0226732741251
12,24.2698016,0.0188227760512
13,23.5098336,0.0149624833077
14,22.664928,0.0112663768721
15,21.636736,0.00764573742951
16,19.088608,0.00497360868086
17,16.8936416,0.0022822369049
18,14.841728,-2.19733645921e-05
19,13.0938016,-0.00237563428423
20,11.891264,-0.004267178957
21,11.0821216,-0.00612010124442
22,10.72896,-0.00747959331976
23,10.594848,-0.00924252258547
24,10.4518020966,-0.0105314357679
25,10.0799739225,-0.0117684074928
26,9.253728,-0.0129460545425
27,8.04672,-0.014028532823
28,7.3269856,-0.0150541077742
29,6.839712,-0.0157140774151
30,6.48208,-0.0166721948881
31,5.856224,-0.0172733438268
32,5.498592,-0.0175606847477
33,5.498592,-0.0181074322564
34,5.2258976,-0.0186193691109
35,4.5553376,-0.0191006929405
36,3.9741856,-0.0193144836634
37,3.710432,-0.019728772911
38,3.6612576,-0.0199308707317
39,3.6612576,-0.0203285020375
40,3.710432,-0.0205253797897
41,3.9741856,-0.0209410713043
42,4.1977056,-0.0211615820073
43,4.380992,-0.0213840691146
44,4.604512,-0.0218349496673
45,4.8682656,-0.0220630277153
46,5.14096,-0.0225233538055
47,5.5388256,-0.0229891569953
48,5.9858656,-0.0234652103267
49,6.2093856,-0.0239478887423
50,6.4329056,-0.0244401971205
51,6.616192,-0.0249482424513
52,6.7905376,-0.0257103086903
53,6.973824,-0.0262027924235
54,7.15264,-0.0266912170168
55,7.37616,-0.0274197031261
56,7.37616,-0.0278885466488
57,7.197344,-0.028554971807
58,6.92912,-0.0289797351794
59,6.750304,-0.0296126875195
60,6.616192,-0.0300192147542
61,6.25856,-0.0304159192306
62,5.7623456,-0.0308062891888
63,5.36448,-0.0311937609673
64,5.3153056,-0.0313863298171
65,5.36448,-0.03176862762
66,5.4494176,-0.0321499451739
67,5.6729376,-0.032538053283
68,5.9858656,-0.0329321938027
69,6.2093856,-0.0333274439085
70,6.392672,-0.0337214450708
71,6.6564256,-0.0341078960046
72,6.973824,-0.0344859513794
73,7.242048,-0.0348588423526
74,7.59968,-0.0354111563969
75,7.9528416,-0.035953430509
76,8.1763616,-0.0363040185608
77,8.4445856,-0.0368008808945
78,8.6681056,-0.037259199527
79,8.9408,-0.0376760542851
80,9.253728,-0.0380476610518
81,9.432544,-0.0383684106476
82,9.7410016,-0.0387201769136
83,9.924288,-0.0389232622979
84,10.326624,-0.039100728079
85,10.6350816,-0.0391621205675
86,10.997184,-0.0391344652552
87,11.3503456,-0.0389593057897
88,11.712448,-0.0385856932266
89,11.935968,-0.037945640198
90,11.935968,-0.0369946949192
91,12.0209056,-0.0357136545638
92,12.114784,-0.0341205253781
93,12.2936,-0.032254475881
94,12.6914656,-0.0301658476224
95,13.277088,-0.027328417652
96,14.0325856,-0.0249614846257
97,15.065248,-0.0219395322227
98,15.86992,-0.0182227187968
99,16.153951918,-0.0150645496845
100,16.048736,-0.0118822204921
101,15.7760416,-0.00811573908784
102,15.4631136,-0.00506017453591
103,14.8819616,-0.00206524337103
104,14.08176,0.000848870132174
105,13.277088,0.00312589384115
106,12.4679456,0.00592527388776
107,11.712448,0.0081530050506
108,11.176,0.00982859220696
109,10.594848,0.0120667432068
110,9.9645216,0.013739633899
111,9.432544,0.0153925075575
112,8.8916256,0.0170241460799
113,8.49376,0.0186284007551
114,8.04672,0.020194702319
115,7.420864,0.021708016064
116,6.4329056,0.0226819919374
117,5.275072,0.0236201723953
118,4.291584,0.0240732720573
119,3.6612576,0.024514377304
120,3.1695136,0.0249425270493
121,2.816352,0.0253568521185
122,2.414016,0.0257585825136
123,2.145792,0.026145126854
124,2.01168,0.026145126854
125,1.922272,0.0265161177803
126,1.78816,0.0268711808952
127,1.78816,0.0268711808952
128,1.8283936,0.0272098975323
129,1.743456,0.0272098975323
130,1.8283936,0.0275316789898
131,1.8730976,0.0278359771791
132,1.966976,0.0278359771791
133,2.0966176,0.0281225764433
134,2.414016,0.0283913894039
135,2.68224,0.0283913894039
136,2.9459936,0.0286425094689
137,3.2142176,0.0288760741515
138,3.263392,0.0290922167227
139,3.3930336,0.0294728476536
140,3.6612576,0.0296377457119
141,3.9741856,0.0297861222059
142,4.1977056,0.0299184009125
143,4.1082976,0.0301371108285
144,3.57632,0.0302247673235
145,3.1695136,0.0302969268991
146,2.816352,0.0303571469986
147,2.4989536,0.0304063398637
148,2.0519136,0.0304451514263
149,1.34112,0.0304451514263
150,0.0,0.0304451514263
151,0.0,0.0304451514263
152,0.0,0.0304451514263
153,0.0,0.0304451514263
154,0.0,0.0304451514263
155,0.0,0.0304451514263
156,0.0,0.0304451514263
157,0.0,0.0304451514263
158,0.0,0.0304451514263
159,0.0,0.0304451514263
160,1.519936,0.0304739436828
161,2.45872,0.0304739436828
162,3.12928,0.0305006740632
163,3.621024,0.0304981866355
164,3.933952,0.0304850335747
165,3.6612576,0.030461388477
166,3.1695136,0.0303830210295
167,2.7671776,0.030328002764
168,2.4989536,0.0302616819274
169,2.2754336,0.0302616819274
170,2.145792,0.030183397299
171,2.01168,0.0300925102446
172,1.966976,0.0299886772293
173,1.922272,0.0299886772293
174,1.8730976,0.0298717702796
175,1.8283936,0.0297420382085
176,1.78816,0.0297420382085
177,1.743456,0.0295999316323
178,1.430528,0.0295999316323
179,0.0,0.0295999316323
180,0.0,0.0295999316323
181,0.0,0.0295999316323
182,0.0,0.0295999316323
183,0.0,0.0295999316323
184,0.0,0.0295999316323
185,0.0,0.0295999316323
186,0.0,0.0295999316323
187,0.0,0.0295999316323
188,0.0,0.0295999316323
189,0.0,0.0295999316323
190,0.0,0.0295999316323
191,0.0,0.0295999316323
192,0.0,0.0295999316323
193,0.0,0.0295999316323
194,0.0,0.0295999316323
195,1.519936,0.0294461230754
196,2.7671776,0.0294461230754
197,3.57632,0.0290999951203
198,4.291584,0.0289100457366
199,4.91744,0.0284942141745
200,5.0023776,0.0282676232195
201,5.2258976,0.0277779800533
202,5.6729376,0.0272451902914
203,5.7623456,0.0266746600481
204,5.6729376,0.0260698726876
205,5.588,0.025438312906
206,5.5388256,0.0247896650426
207,5.275072,0.0237856496378
208,5.051552,0.0234402298862
209,4.828032,0.0227346614593
210,4.604512,0.0223736946798
211,4.604512,0.0216324906946
212,5.0023776,0.0212519312524
213,5.5388256,0.0204716439625
214,6.1199776,0.0196673271766
215,6.5670176,0.0184262868913
216,6.392672,0.0175909440764
217,5.856224,0.0167603527046
218,5.0023776,0.0159462830313
219,4.24688,0.0155432397709
220,3.7506656,0.0147470407983
221,3.3930336,0.0143554786388
222,3.1695136,0.013969719814
223,2.9459936,0.0135904445116
224,2.861056,0.0132181059426
225,2.9459936,0.0128526604596
226,3.263392,0.0124938020671
227,4.068064,0.0121406722806
228,4.8682656,0.0114469954484
229,5.14096,0.0111037057483
230,4.962144,0.0104191138507
231,5.051552,0.00973194150803
232,5.36448,0.00938594956938
233,5.588,0.00868817470341
234,5.945632,0.00798363841968
235,6.4329056,0.00727372780422
236,6.4329056,0.00656179121943
237,5.7623456,0.00584934618875
238,4.962144,0.00512645800141
239,5.06141135647,0.00439483836674
240,6.03504,0.00365056451439
241,7.5505056,0.00289135639331
242,9.030208,0.00172328941779
243,9.477248,0.000524038890021
244,9.38784,-0.000696180164255
245,8.3998816,-0.0019284187708
246,7.242048,-0.00317634656001
247,6.48208,-0.0040126208992
248,6.25856,-0.00526708469471
249,6.25856,-0.00610698915649
250,6.303264,-0.00695315493853
251,6.3434976,-0.00780738762141
252,6.392672,-0.00867254155437
253,6.392672,-0.00955013401412
254,6.25856,-0.0104365589145
255,6.1199776,-0.0113308819181
256,6.079744,-0.0122358345641
257,6.079744,-0.0131495445269
258,6.1199776,-0.0140667641641
259,6.2093856,-0.0149831467979
260,5.8964576,-0.0158958446089
261,4.7788576,-0.0168012988736
262,3.933952,-0.0172497266029
263,3.933952,-0.0181342414288
264,4.068064,-0.018568954025
265,4.1977056,-0.0189979084563
266,4.4704,-0.0198367961758
267,4.69392,-0.0202461082424
268,4.962144,-0.0210447288527
269,5.2258976,-0.0218136417567
270,5.4494176,-0.0221853479766
271,5.6729376,-0.0228977418101
272,5.945632,-0.0235621403191
273,6.4329056,-0.0241746279997
274,7.2822816,-0.0247360867984
275,8.2210656,-0.0254830935827
276,9.0704416,-0.0261064756333
277,9.83488,-0.026597090316
278,10.371328,-0.0270627914531
279,10.550144,-0.0272973306057
280,10.550144,-0.0274724681875
281,10.550144,-0.0274927449004
282,10.6797856,-0.0273527004536
283,10.818368,-0.0270048821435
284,10.997184,-0.0264295039271
285,11.176,-0.0258350479306
286,11.39952,-0.0247995596298
287,11.5738656,-0.023466667046
288,11.62304,-0.0218644451061
289,11.5738656,-0.0200800644724
290,11.488928,-0.018207521346
291,11.39952,-0.016288685424
292,11.3503456,-0.0148432359795
293,11.3056416,-0.0129204264386
294,11.220704,-0.0109973182465
295,10.95248,-0.00908799469525
296,10.4562656,-0.00767354080157
297,10.103104,-0.0058206158801
298,9.879584,-0.00446768185237
299,9.61136,-0.00315888970426
300,9.38784,-0.00187697927396
301,9.209024,-0.000622969007146
302,9.0704416,0.0005924917147
303,8.8916256,0.00213350662797
304,8.806688,0.0028624276685
305,8.6234016,0.00389773524262
306,8.3998816,0.00485968662732
307,8.136128,0.00574975909404
308,7.5505056,0.00655876576238
309,6.8799456,0.00704694158388
310,6.169152,0.00749069062999
311,5.722112,0.00788684432516
312,5.4494176,0.00823424929053
313,5.275072,0.00853316094317
314,5.185664,0.00866470329271
315,5.0023776,0.00889337498826
316,4.738624,0.00908233835038
317,4.515104,0.00916392720881
318,4.4212256,0.00930246642564
319,4.3318176,0.00936001119854
320,4.291584,0.00941054381444
321,4.24688,0.0094933458546
322,4.157472,0.00952666836107
323,3.933952,0.00955506044833
324,3.621024,0.00957891113314
325,3.2142176,0.00959894918593
326,2.5436576,0.00961590356196
327,1.78816,0.00963036364637
328,1.519936,0.00963036364637
329,1.519936,0.00964290699066
330,1.1176,0.00964290699066
331,0.0,0.00964290699066
332,0.0,0.00964290699066
333,0.0,0.00964290699066
334,0.0,0.00964290699066
335,0.0,0.00964290699066
336,0.0,0.00964290699066
337,0.0,0.00964290699066
338,0.0,0.00964290699066
339,0.0,0.00964290699066
340,0.0,0.00964290699066
341,0.0,0.00964290699066
342,1.4707616,0.00966470407322
343,2.45872,0.00966470407322
344,3.12928,0.00967540458154
345,3.57632,0.00968676189786
346,3.486912,0.00971119196547
347,3.263392,0.00972362641645
348,3.084576,0.00973574946491
349,3.084576,0.00974749346608
350,3.084576,0.00975876643462
351,2.9459936,0.00976940194266
352,2.7224736,0.00977935736988
353,2.2352,0.00978878668353
354,1.8730976,0.00978878668353
355,1.8283936,0.00979801832936
356,1.8283936,0.00979801832936
357,1.922272,0.009807591119
358,2.01168,0.00981775049343
359,2.3201376,0.00981775049343
360,2.9459936,0.00982834792734
361,3.3930336,0.00983927717156
362,3.531616,0.00985051865101
363,3.3528,0.00987463717303
364,3.486912,0.00988796484935
365,3.3528,0.0099021965072
366,2.816352,0.00991740974298
367,1.8730976,0.00993375682434
368,0.0,0.00993375682434
369,0.0,0.00993375682434
370,0.8449056,0.00995137659562
371,1.0237216,0.00995137659562
372,1.1578336,0.00995137659562
373,1.296416,0.00997038822347
374,1.519936,0.00997038822347
375,1.966976,0.00999082787598
376,2.2352,0.00999082787598
377,2.145792,0.0100126626344
378,1.966976,0.0100126626344
379,2.01168,0.0100358580436
380,2.0519136,0.0100603709078
381,2.0519136,0.0100860313943
382,1.743456,0.0100860313943
383,1.072896,0.0101125696194
384,0.0,0.0101125696194
385,0.0,0.0101125696194
386,0.0,0.0101125696194
387,0.0,0.0101125696194
388,0.0,0.0101125696194
389,0.0,0.0101125696194
390,1.0237216,0.0101125696194
391,1.78816,0.0101396147764
392,2.414016,0.0101396147764
393,2.9459936,0.0101667121914
394,3.621024,0.0102183601037
395,4.4212256,0.0102414191359
396,4.91744,0.0102788413425
397,4.87109084886,0.0102925185449
398,4.4704,0.0103075702326
399,3.933952,0.0103076755671
400,3.308096,0.0102895482361
401,2.90576,0.0102702073471
402,2.90576,0.010243306235
403,2.861056,0.0102082587964
404,2.861056,0.0102082587964
405,2.9459936,0.0101642003553
406,3.4377376,0.0101101679837
407,3.933952,0.00996853764754
408,3.9741856,0.00987962470697
409,4.068064,0.00977817846317
410,4.515104,0.00953716949856
411,5.0917856,0.00924831394205
412,5.4494176,0.00908680750535
413,5.4494176,0.00872694233227
414,5.36448,0.00831841230218
415,5.185664,0.00809640455412
416,4.828032,0.00761825703071
417,4.515104,0.00709712116859
418,4.1977056,0.00682158207295
419,3.79984,0.00653671114216
420,2.68224,0.00594100572798
421,1.922272,0.00594100572798
422,1.8730976,0.00563138944132
423,2.0519136,0.00563138944132
424,2.145792,0.00531490240601
425,2.2352,0.00499239737792
426,2.2352,0.00466471644253
427,2.369312,0.00466471644253
428,2.4989536,0.00433255066312
429,2.414016,0.00399651373739
430,2.2754336,0.00365706089759
431,2.0966176,0.00332159559259
432,1.56464,0.00332159559259
433,0.8449056,0.00298328087345
434,0.0,0.00298328087345
435,0.0,0.00298328087345
436,0.0,0.00298328087345
437,0.0,0.00298328087345
438,0.0,0.00298328087345
439,0.0,0.00298328087345
440,0.0,0.00298328087345
441,0.0,0.00298328087345
442,0.0,0.00298328087345
443,0.983488,0.00298328087345
444,1.3813536,0.00298328087345
445,1.922272,0.00264215448477
446,2.190496,0.00229828861322
447,2.145792,0.00229828861322
448,2.0966176,0.00195175501397
449,2.0966176,0.00160258932239
450,2.0519136,0.00125088928154
451,1.654048,0.00125088928154
452,0.0,0.00125088928154
453,0.0,0.00125088928154
454,0.0,0.00125088928154
455,0.0,0.00125088928154
456,0.0,0.00125088928154
457,0.0,0.00125088928154
458,0.89408,0.00089703720327
459,1.1176,0.000541513260986
460,1.2472416,0.000541513260986
461,1.430528,0.000184904498429
462,1.56464,0.000184904498429
463,1.6942816,0.000184904498429
464,1.8283936,-0.000172203645044
465,2.01168,-0.000529338963811
466,2.2754336,-0.000529338963811
467,2.592832,-0.000886016667705
468,2.816352,-0.00124158836824
469,2.90576,-0.00159544477539
470,2.7671776,-0.0019472965804
471,2.7224736,-0.00229691566493
472,2.7224736,-0.00264399862517
473,2.7224736,-0.00298819956962
474,2.7224736,-0.00332907790471
475,2.4989536,-0.00367543824229
476,1.966976,-0.00401740191959
477,1.1578336,-0.00401740191959
478,0.983488,-0.00401740191959
479,1.1578336,-0.00435455716998
480,1.430528,-0.00435455716998
481,1.6048736,-0.00435455716998
482,1.743456,-0.0046864361133
483,2.01168,-0.0050125008293
484,2.190496,-0.0050125008293
485,2.3201376,-0.00533198932812
486,2.3201376,-0.00564402611933
487,2.2754336,-0.00564402611933
488,2.3201376,-0.00594750569274
489,2.2754336,-0.00624130936794
490,2.01168,-0.00652449573069
491,1.922272,-0.00652449573069
492,1.8283936,-0.00679624839932
493,1.3813536,-0.00705607381417
494,0.89408,-0.00705607381417
495,0.0,-0.00705607381417
496,0.0,-0.00705607381417
497,0.0,-0.00705607381417
498,0.0,-0.00705607381417
499,0.0,-0.00705607381417
500,0.0,-0.00705607381417
501,0.0,-0.00705607381417
502,0.0,-0.00705607381417
503,0.0,-0.00705607381417
504,1.1578336,-0.00730361127736
505,1.430528,-0.00730361127736
506,1.6048736,-0.00730361127736
507,1.78816,-0.00753870865402
508,2.2352,-0.00776133433873
509,2.9906976,-0.00797173025511
510,3.621024,-0.00817026828013
511,4.068064,-0.00835756659827
512,4.4212256,-0.00870129943835
513,4.69392,-0.00884816205815
514,5.2258976,-0.00912000482601
515,5.7623456,-0.0093638024037
516,6.25856,-0.00958097007319
517,6.616192,-0.00986097532093
518,6.92912,-0.010017408944
519,7.37616,-0.0101934490072
520,7.7293216,-0.0102703387311
521,7.59968,-0.0103306719393
522,7.420864,-0.0103415235306
523,7.242048,-0.0103322415064
524,7.1034656,-0.0103049996021
525,7.242048,-0.0102820148725
526,7.5058016,-0.010252088888
527,7.59968,-0.0102354577157
528,7.3269856,-0.0102154706832
529,7.3269856,-0.0102066019194
530,7.465568,-0.0102007134968
531,7.59968,-0.0101908027612
532,7.7740256,-0.0101718435876
533,7.9528416,-0.0101345707669
534,7.912608,-0.0100953355212
535,7.465568,-0.0100688717375
536,7.0140576,-0.0100368372933
537,6.839712,-0.0100185993846
538,6.7056,-0.00999458162097
539,6.616192,-0.00996195454645
540,6.48208,-0.00989679330338
541,6.392672,-0.00984127068311
542,6.3434976,-0.00978035807327
543,6.303264,-0.00972098368422
544,6.2093856,-0.00966852667464
545,6.169152,-0.00962407977134
546,6.4329056,-0.00958992342509
547,6.5670176,-0.00957029750637
548,6.48208,-0.00958060527313
549,6.2093856,-0.00960269432363
550,5.4494176,-0.0096330800655
551,4.515104,-0.00967446479872
552,3.8847776,-0.00969910453441
553,3.4377376,-0.00972500349303
554,2.861056,-0.00975067850479
555,2.5436576,-0.00977505490479
556,2.5436576,-0.00979764500136
557,2.68224,-0.00981790230652
558,2.7224736,-0.00983575945088
559,2.7671776,-0.00985103410133
560,2.816352,-0.00985103410133
561,2.861056,-0.00986356554596
562,2.9459936,-0.0098732985677
563,2.9906976,-0.00988051840453
564,3.084576,-0.00988610456486
565,3.084576,-0.00989098215088
566,3.12928,-0.00989603448454
567,3.12928,-0.00990166866168
568,3.1695136,-0.0099077409558
569,3.2142176,-0.00991376431993
570,3.263392,-0.00991899370182
571,2.90576,-0.0099229552362
572,1.966976,-0.00992539843283
573,0.0,-0.00992539843283
574,0.0,-0.00992539843283
575,0.0,-0.00992539843283
576,0.0,-0.00992539843283
577,0.0,-0.00992539843283
578,0.0,-0.00992539843283
579,0.0,-0.00992539843283
580,0.0,-0.00992539843283
581,0.0,-0.00992539843283
582,0.0,-0.00992539843283
583,0.0,-0.00992539843283
584,0.0,-0.00992539843283
585,0.0,-0.00992539843283
586,0.0,-0.00992539843283
587,0.0,-0.00992539843283
588,0.0,-0.00992539843283
589,0.0,-0.00992539843283
590,0.0,-0.00992539843283
591,1.1176,-0.00992632987279
592,1.6048736,-0.00992589635745
593,2.190496,-0.00992589635745
594,2.414016,-0.00992425710518
595,2.01168,-0.00992161187091
596,0.983488,-0.00992161187091
597,0.0,-0.00992161187091
598,0.0,-0.00992161187091
599,0.0,-0.00992161187091
600,0.0,-0.00992161187091
601,0.0,-0.00992161187091
602,0.0,-0.00992161187091
603,0.0,-0.00992161187091
604,0.0,-0.00992161187091
605,0.0,-0.00992161187091
606,0.0,-0.00992161187091
607,0.0,-0.00992161187091
608,0.0,-0.00992161187091
609,0.0,-0.00992161187091
610,0.0,-0.00992161187091
611,0.0,-0.00992161187091
612,0.0,-0.00992161187091
613,0.0,-0.00992161187091
614,0.0,-0.00992161187091
615,0.0,-0.00992161187091
616,0.0,-0.00992161187091
617,1.1578336,-0.00992161187091
618,1.4707616,-0.00991834905316
619,1.743456,-0.00991834905316
620,2.414016,-0.00991501068228
621,3.039872,-0.00991198160165
622,3.12928,-0.00990978392915
623,3.084576,-0.0099091024308
624,2.90576,-0.00991037287872
625,2.816352,-0.00991337153626
626,2.816352,-0.00991761007179
627,2.7224736,-0.00992229778938
628,2.5436576,-0.00992702083252
629,2.414016,-0.00993195071386
630,2.369312,-0.0099372814738
631,2.0519136,-0.00994317906683
632,1.296416,-0.00994317906683
633,1.1578336,-0.00994975759274
634,1.34112,-0.00994975759274
635,1.519936,-0.00995711033521
636,1.654048,-0.00995711033521
637,1.8730976,-0.009965641532
638,2.190496,-0.009965641532
639,2.369312,-0.00997596622663
640,2.4989536,-0.0099886311854
641,2.637536,-0.0100041293945
642,2.816352,-0.0100228564038
643,3.12928,-0.0100451292117
644,3.3528,-0.0100710687833
645,3.7506656,-0.0100990670303
646,4.157472,-0.0101628673388
647,4.6447456,-0.0101968765991
648,5.409184,-0.0102636763001
649,6.48208,-0.0103245331702
650,7.5058016,-0.0104062936115
651,8.27024,-0.0104852876694
652,8.359648,-0.0105627319385
653,8.314944,-0.0106314910015
654,8.2210656,-0.0106646624772
655,7.9528416,-0.0106833123764
656,7.8232,-0.0106558894411
657,7.7740256,-0.0105767225089
658,7.7740256,-0.0104471382019
659,7.644384,-0.010336597316
