time(s),speed(m/s),grade
0,26.107136,0.0120154736101
1,26.15184,0.014821326173
2,26.15184,0.0178532069194
3,26.1920736,0.0206623752402
4,26.2814816,0.0229064195083
5,26.37536,0.0251242997374
6,26.2814816,0.0269704569119
7,26.241248,0.0283870288091
8,26.330656,0.0293707371749
9,26.330656,0.0299670008328
10,26.2814816,0.030150431945
11,26.15184,0.02991813592
12,26.107136,0.0292714583513
13,26.017728,0.0283589667218
14,25.92832,0.0269597993828
15,26.0579616,0.0253945203463
16,26.330656,0.0233012284036
17,26.688288,0.020906134283
18,27.04592,0.0182690097145
19,27.5331936,0.0154489415166
20,27.94,0.0125189623206
21,28.38704,0.00956066538314
22,28.744672,0.00633457944959
23,28.8743136,0.00356307939442
24,28.789376,0.000742805767206
25,29.0576,-0.00178745401014
26,29.638752,-0.00396809559689
27,30.2601376,-0.00589149313683
28,30.84576,-0.00719500231101
29,31.471616,-0.00840685204295
30,32.0482976,-0.00924446018637
31,32.6741536,-0.00977727596824
32,33.1211936,-0.0100889556507
33,33.30448,-0.0102375548585
34,33.215072,-0.0102781103444
35,33.2063118704,-0.0102489946819
36,33.3332807721,-0.0101872283941
37,33.5453156878,-0.0100988315139
38,33.7917536,-0.00997366407899
39,33.97504,-0.00983447797076
40,33.930336,-0.00966989901433
41,33.8364576,-0.00951161559553
42,33.706816,-0.00933073573967
43,33.662112,-0.00916797691394
44,33.5682336,-0.00899201975614
45,33.528,-0.00883613151181
46,33.483296,-0.00870688427649
47,33.3894176,-0.00861748880071
48,33.3447136,-0.00858029567943
49,33.215072,-0.00861613306705
50,33.1658976,-0.00874999250134
51,33.08096,-0.00901010269781
52,33.08096,-0.00943354098833
53,33.259776,-0.0100663800829
54,33.528,-0.0109508519852
55,33.7917536,-0.0121218450036
56,33.885632,-0.0135948783426
57,33.97504,-0.015518733566
58,34.0599776,-0.0175113114147
59,34.153856,-0.0195982110206
60,34.2387936,-0.0218621847043
61,34.377376,-0.0237765927646
62,34.6223956245,-0.0255549991621
63,34.9494922943,-0.0268913678392
64,35.31616,-0.028028180316
65,35.673792,-0.0278873286773
66,35.98672,-0.0268492586787
67,36.2951776,-0.0250330418182
68,36.4739936,-0.0225659114865
69,36.567872,-0.0195751257076
70,36.612576,-0.0161835219553
71,36.6975136,-0.0125179436833
72,36.65728,-0.0086863833949
73,36.43376,-0.00484238551931
74,36.0716576,-0.0010352040216
75,35.897312,0.00255183064817
76,35.7632,0.00492636718774
77,35.53968,0.00570003231024
78,35.4010976,0.00530050750568
79,35.4010976,0.00530722787088
80,35.53968,0.00573874766778
81,35.6246176,0.00573232011503
82,35.6246176,0.00530887222969
83,35.4010976,0.00475996299877
84,35.1328736,0.00455050030817
85,34.86912,0.00490109298885
86,34.600896,0.00545665169409
87,34.4623136,0.00561065318469
88,34.5070176,0.00530157156248
89,34.600896,0.00505066204664
90,34.7305376,0.00516148210884
91,34.779712,0.00542609166273
92,34.6858336,0.00555826365429
93,34.5070176,0.00548594627505
94,34.4623136,0.00530140384181
95,34.4623136,0.00519376675708
96,34.4623136,0.00530272954756
97,34.42208,0.00526209689067
98,34.4623136,0.00500561926745
99,34.4623136,0.00481218971145
100,34.5070176,0.00465480749336
101,34.6456,0.00472373293935
102,34.779712,0.00544572841274
103,34.86912,0.006802675145
104,34.9540576,0.00871291222978
105,34.9540576,0.0114516112943
106,34.9093536,0.0141969986599
107,34.9540576,0.0171909493968
108,34.9540576,0.0198326251805
109,34.824416,0.0226442965073
110,34.600896,0.0250207676523
111,34.2387936,0.0264654624152
112,33.8364576,0.0269559801456
113,33.706816,0.0266747422741
114,33.6129376,0.0263913611968
115,33.5682336,0.0262816978484
116,33.528,0.026397310771
117,33.3447136,0.0269591798193
118,33.1658976,0.027658158866
119,33.1211936,0.0289248735074
120,33.1211936,0.0310097327138
121,33.1658976,0.0322507351913
122,33.1658976,0.0320722729562
123,33.08096,0.0308726057917
124,32.991552,0.029011582319
125,32.9423776,0.0272395556879
126,32.9423776,0.0260532482288
127,32.9423776,0.0249332102747
128,32.8976736,0.0231893986526
129,32.991552,0.0210878521282
130,33.08096,0.0184504753562
131,33.1658976,0.0153681176742
132,33.259776,0.0121027459544
133,33.3447136,0.00881191945757
134,33.438592,0.00549374179831
135,33.528,0.00210150866904
136,33.483296,-0.00145077504426
137,33.483296,-0.00558897817521
138,33.6129376,-0.00922597318749
139,33.662112,-0.0125155443956
140,33.528,-0.0145449468883
141,33.3447136,-0.0143620594534
142,33.3894176,-0.0119653568558
143,33.3894176,-0.00926091395599
144,33.483296,-0.00705476547098
145,33.528,-0.00642746163985
146,33.662112,-0.00738305356508
147,33.7917536,-0.0095054650418
148,33.930336,-0.0122280635961
149,34.0599776,-0.014978914174
150,34.2834976,-0.017820374884
151,34.556192,-0.0205069887628
152,34.6456,-0.0234630974461
153,34.556192,-0.0260468928361
154,33.885632,-0.0286315682417
155,32.85744,-0.0303013645992
156,32.0482976,-0.030887129997
157,30.979872,-0.0306798040592
158,30.2601376,-0.0300492425133
159,29.638752,-0.0293247841176
160,28.789376,-0.0289698849626
161,27.358848,-0.0290316370863
162,26.688288,-0.0292575282975
163,26.017728,-0.0295719170224
164,25.213056,-0.0297664566858
165,24.5872,-0.0299299937943
166,23.5098336,-0.0299626309223
167,21.100288,-0.0298145655997
168,19.401536,-0.029501414636
169,19.088608,-0.0289194762334
170,18.32864,-0.0282372799021
171,16.8936416,-0.0275510512634
172,16.406368,-0.0266114929377
173,15.735808,-0.025749254526
174,15.735808,-0.0248780960904
175,15.825216,-0.0239918150385
176,15.86992,-0.0230939136905
177,15.959328,-0.0221945828729
178,15.7760416,-0.0212871314715
179,15.6866336,-0.0203443404932
180,15.825216,-0.0191943831902
181,16.5807136,-0.0182728770632
182,16.853408,-0.017416603371
183,16.853408,-0.0164930441656
184,16.6701216,-0.0157080240349
185,16.5807136,-0.0151492463483
186,16.495776,-0.0146545520296
187,16.3571936,-0.0141847554924
188,16.272256,-0.0138942192852
189,15.9995616,-0.0136593022168
190,15.4631136,-0.013369020824
191,15.302128005,-0.0131308636379
192,15.378176,-0.0128889510694
193,15.5525216,-0.012705102348
194,16.272256,-0.0124620072274
195,16.8936416,-0.0121673160266
196,17.523968,-0.0117103351355
197,17.6983136,-0.0111568560383
198,17.8816,-0.010505252622
199,17.9218336,-0.00991205961659
200,18.1453536,-0.00911350672154
201,18.283936,-0.00818961671768
202,17.8816,-0.00723194490779
203,17.21104,-0.00630731611031
204,17.0277536,-0.00541696178858
205,16.942816,-0.00453814424477
206,16.98752,-0.00378677437131
207,16.629888,-0.00281061685278
208,16.54048,-0.0019336490526
209,16.764,-0.000837767456303
210,16.8042336,7.66945245785e-05
211,16.764,0.00114766738397
212,16.4466016,0.00214252207007
213,16.31696,0.00283616671601
214,16.182848,0.00339548715635
215,15.9995616,0.00400127842544
216,14.931136,0.0044484866128
217,13.724128,0.00473446096015
218,12.74064,0.00498110995969
219,11.7973856,0.00508389359456
220,11.62304,0.00510076025965
221,11.444224,0.0050686839761
222,11.3056416,0.00502456089283
223,11.39952,0.00498540165854
224,11.3056416,0.00492433702282
225,10.9033056,0.00486058924365
226,10.550144,0.00481672680712
227,10.326624,0.00476854788846
228,9.7857056,0.00473890023948
229,9.3386656,0.00471764646139
230,8.8469216,0.00469721323893
231,8.583168,0.00467103292286
232,8.583168,0.0046450646574
233,8.6234016,0.00462745037243
234,8.71728,0.00461340738226
235,8.806688,0.00459291442019
236,8.9408,0.00456198606007
237,9.16432,0.00451630463246
238,8.71728,0.00445763582857
239,7.59968,0.00441722112149
240,6.839712,0.00436285417567
241,6.169152,0.00433362775678
242,5.945632,0.0043133249125
243,5.856224,0.00430532609055
244,5.9858656,0.00430650500785
245,6.4329056,0.00432004885892
246,6.839712,0.00437873553085
247,7.4140035309,0.00445556678924
248,8.11965885994,0.00456705700344
249,8.806688,0.00475691582991
250,9.253728,0.00493707337589
251,9.1151456,0.00506547352101
252,8.583168,0.0051183302777
253,7.9528416,0.00510094694246
254,7.689088,0.00504755599316
255,7.7293216,0.0050051544156
256,7.644384,0.00499889361645
257,7.420864,0.00502933746185
258,7.37616,0.00507924281082
259,7.644384,0.00520213137037
260,7.7293216,0.00532088317053
261,7.5058016,0.00556722470511
262,7.59968,0.00590788447547
263,7.689088,0.00618947891083
264,7.465568,0.00669488681801
265,6.7905376,0.00708556810511
266,5.36448,0.00751093117356
267,3.933952,0.0079658974136
268,3.1695136,0.00820480922502
269,2.9906976,0.0084510035757
270,3.09062155169,0.00870417759667
271,3.22487836053,0.00896395748123
272,3.1695136,0.00922974409264
273,2.9459936,0.00950097892912
274,3.1695136,0.00977749129647
275,3.3930336,0.010059193042
276,3.621024,0.0103459383187
277,3.710432,0.0106375115767
278,3.8847776,0.0112334275647
279,4.068064,0.0115373111003
280,4.3318176,0.0121571847836
281,4.91744,0.0124734341735
282,5.21638254882,0.013125609341
283,5.35560952185,0.0138009917731
284,5.722112,0.0144903415112
285,6.392672,0.0151903757301
286,6.526784,0.0158989598779
287,6.2093856,0.0166174457215
288,5.7623456,0.0173482110669
289,5.8964576,0.0180907378805
290,6.7056,0.0188406482156
291,7.5505056,0.0199668536163
292,8.314944,0.0207141514017
293,9.16432,0.0218327112042
294,10.4562656,0.0233255352901
295,11.234183643,0.0244489553816
296,11.5858023697,0.0259425980895
297,11.9762016,0.0274413398174
298,12.6914656,0.0289379725423
299,13.4112,0.0307571558094
300,14.0325856,0.0321196183364
301,14.4349216,0.0336810584373
302,14.707616,0.0351058690643
303,15.19936,0.0363386447898
304,15.735808,0.0375292331162
305,16.182848,0.0383480945211
306,16.3571936,0.0390259281801
307,16.3571936,0.0396813734294
308,16.6701216,0.0401021387833
309,17.3406816,0.0404551579221
310,17.6278206615,0.0406626257825
311,17.613376,0.0407473709044
312,17.613376,0.0407449326946
313,17.7877216,0.0406909802448
314,18.060416,0.0405474445862
315,18.0112416,0.0402041193623
316,17.4747936,0.039589012512
317,16.54048,0.0385984090763
318,15.6464,0.0374460002849
319,15.065248,0.0360073283352
320,14.841728,0.0343235866325
321,14.5288,0.032434429302
322,13.8090656,0.0303964954023
323,13.008864,0.0286729580845
324,12.07008,0.0268709614214
325,10.72896,0.0250288937264
326,9.924288,0.0236209775191
327,9.5621856,0.022197120402
328,8.8916256,0.0207595364351
329,7.420864,0.01930860339
330,6.4329056,0.0183363193187
331,5.9858656,0.0173636773061
332,5.722112,0.0163960751525
333,5.409184,0.0154375844613
334,5.0917856,0.0144904348223
335,4.828032,0.014021630627
336,4.604512,0.0130940203146
337,4.4212256,0.0126346934647
338,4.157472,0.0121775006587
339,4.4212256,0.0112663768721
340,5.185664,0.0108114017025
341,6.303264,0.00990210057838
342,7.37616,0.00854383555016
343,8.583168,0.00764573742951
344,9.700768,0.00630783083848
345,10.6797856,0.00452825349139
346,11.5738656,0.00273501313218
347,11.62304,0.000907595544327
348,11.265408,-0.000489466127233
349,10.0092256,-0.00237563428423
350,9.030208,-0.00379843436019
351,8.71728,-0.00519848519735
352,8.04672,-0.00657673858811
353,7.5505056,-0.0079248277427
354,6.6564256,-0.00880050245669
355,5.856224,-0.009678319783
356,5.2258976,-0.0105314357679
357,4.068064,-0.0109493855762
358,3.3528,-0.0113618488424
359,3.29626661384,-0.0117684074928
360,3.44692452664,-0.0121681334707
361,3.263392,-0.0125606377206
362,2.369312,-0.0129460545425
363,1.34112,-0.0133255878416
364,1.34112,-0.0133255878416
365,1.4707616,-0.0136787937755
366,2.2352,-0.0136787937755
367,3.1695136,-0.014028532823
368,3.844544,-0.014716769761
369,4.068064,-0.0150541077742
370,3.8847776,-0.0153866174946
371,3.933952,-0.0160399795815
372,3.933952,-0.0163596187781
373,4.1977056,-0.0166721948881
374,4.4212256,-0.0172733438268
375,4.515104,-0.0175606847477
376,4.604512,-0.0181074322564
377,4.4704,-0.0183675036003
378,3.531616,-0.0188635781907
379,2.3201376,-0.0191006929405
380,1.4707616,-0.0191006929405
381,0.0,-0.0191006929405
382,0.0,-0.0191006929405
383,0.0,-0.0191006929405
384,0.0,-0.0191006929405
385,0.0,-0.0191006929405
386,1.56464,-0.0193144836634
387,2.592832,-0.0195235587811
388,2.637536,-0.019728772911
389,3.12928,-0.0199308707317
390,3.933952,-0.0201305589091
391,4.6447456,-0.0205253797897
392,5.7623456,-0.0209410713043
393,6.750304,-0.0213840691146
394,6.8799456,-0.0218349496673
395,7.0140576,-0.0225233538055
396,7.644384,-0.0229891569953
397,8.3998816,-0.0237097919595
398,8.8469216,-0.0244401971205
399,9.7857056,-0.0252040228061
400,10.72896,-0.0262027924235
401,11.5738656,-0.0271794027294
402,12.0209056,-0.0281155234022
403,12.114784,-0.0289797351794
404,12.2936,-0.029817259876
405,12.6467616,-0.0306116089446
406,12.785344,-0.0315779273864
407,12.6914656,-0.0323426112323
408,12.1997216,-0.0331295461321
409,11.891264,-0.0339159138698
410,11.5738656,-0.0346728991119
411,10.6797856,-0.0354111563969
412,9.209024,-0.035953430509
413,8.091424,-0.0364739393954
414,7.5058016,-0.0368008808945
415,7.5505056,-0.037259199527
416,7.867904,-0.0375419789244
417,8.4445856,-0.0379292116194
418,9.1151456,-0.0382671305593
419,9.656064,-0.0385557393582
420,9.656064,-0.0387941581243
421,9.3386656,-0.0390253536716
422,9.16432,-0.0391283997204
423,9.209024,-0.0391674558637
424,9.477248,-0.0391344652552
425,9.924288,-0.0389593057897
426,10.1880416,-0.0387017927386
427,10.0584,-0.0383025737051
428,10.147808,-0.0375108993953
429,10.4115616,-0.0367052114378
430,10.594848,-0.0353435352512
431,10.4562656,-0.0341205253781
432,10.594848,-0.032254475881
433,10.818368,-0.0301658476224
434,11.176,-0.0284868636289
435,11.84656,-0.0261506410622
436,12.8702816,-0.023761741939
437,13.9878816,-0.020714294044
438,14.8819616,-0.0175942655011
439,15.4631136,-0.0144285354273
440,16.406368,-0.0112478178674
441,17.3406816,-0.00749833264694
442,18.0112416,-0.00385696629307
443,18.060416,-0.000306178382988
444,18.5923936,0.00312589384115
445,19.0394336,0.0064818836497
446,19.1288416,0.0103879192045
447,18.8159136,0.013739633899
448,17.3406816,0.0170241460799
449,16.4466016,0.020194702319
450,15.86992,0.0226819919374
451,15.288768,0.0249425270493
452,14.5690336,0.0268711808952
453,13.947648,0.0283913894039
454,13.500608,0.0292910797922
455,13.008864,0.0300351850402
456,11.9762016,0.0303571469986
457,11.3503456,0.0304925306584
458,10.95248,0.0304850335747
459,10.550144,0.030328002764
460,10.4562656,0.0299886772293
461,10.50544,0.0295999316323
462,10.95248,0.0289100457366
463,11.444224,0.0282676232195
464,11.444224,0.0272451902914
465,11.3503456,0.0260698726876
466,11.3503456,0.0247896650426
467,11.62304,0.0234402298862
468,11.3056416,0.0220064402203
469,9.9645216,0.0208649188839
470,9.2939616,0.0196673271766
471,8.9408,0.0184262868913
472,8.6234016,0.0171747103696
473,8.359648,0.0159462830313
474,8.27024,0.0147470407983
475,8.359648,0.013969719814
476,8.136128,0.0128526604596
477,7.912608,0.0117921973998
478,7.7293216,0.0111037057483
479,7.5058016,0.0100761986314
480,7.59968,0.0090379881819
481,7.7740256,0.0083366926827
482,8.091424,0.00727372780422
483,8.3998816,0.00656179121943
484,8.2210656,0.00548871917006
485,8.27024,0.00439483836674
486,8.56065212931,0.00327286803156
487,8.2210656,0.00211650016827
488,6.7056,0.00132653465496
489,5.275072,0.000524038890021
490,4.738624,-0.000287674778395
491,4.604512,-0.00110611726431
492,4.25465381607,-0.00151702063599
493,3.710432,-0.00234002620212
494,3.2142176,-0.00275818466414
495,3.1695136,-0.00317634656001
496,3.57632,-0.00359452143696
497,3.57632,-0.0040126208992
498,2.145792,-0.00443059524118
499,1.1578336,-0.00443059524118
500,0.9343136,-0.00484864745605
501,0.8449056,-0.00484864745605
502,0.0,-0.00484864745605
503,0.0,-0.00484864745605
504,0.0,-0.00484864745605
505,0.0,-0.00484864745605
506,0.0,-0.00484864745605
507,0.0,-0.00484864745605
508,0.0,-0.00484864745605
509,0.0,-0.00484864745605
510,1.296416,-0.00526708469471
511,2.0966176,-0.00526708469471
512,2.414016,-0.00568637804954
513,2.3201376,-0.00610698915649
514,2.190496,-0.0065291779094
515,2.3201376,-0.0065291779094
516,2.90576,-0.00695315493853
517,3.6612576,-0.007379135576
518,4.828032,-0.00823838405892
519,6.1199776,-0.00910984636618
520,6.48208,-0.00999306747537
521,6.5670176,-0.010882446914
522,6.839712,-0.0117820180867
523,7.063232,-0.0126918787474
524,7.15264,-0.0140667641641
525,7.242048,-0.0149831467979
526,7.242048,-0.016349766725
527,7.242048,-0.0172497266029
528,7.465568,-0.018568954025
529,7.644384,-0.0194206529084
530,7.689088,-0.0206489746923
531,7.7740256,-0.0214331562265
532,7.7740256,-0.0225470945621
533,7.9528416,-0.0235621403191
534,8.136128,-0.0241746279997
535,8.14886648536,-0.0249980529207
536,7.5505056,-0.025705164224
537,6.303264,-0.0261064756333
538,5.7623456,-0.0264505859083
539,5.722112,-0.0267312450618
540,5.9858656,-0.0269637712947
541,6.392672,-0.0271510312422
542,6.3434976,-0.0272973306057
543,5.588,-0.0274048737115
544,5.5388256,-0.0274724681875
545,5.81152,-0.0274973936648
546,6.48208,-0.0274762055065
547,6.7905376,-0.0274063932874
548,6.839712,-0.0272060141332
549,6.8799456,-0.0270048821435
550,7.1034656,-0.0267470119926
551,7.59968,-0.02624752942
552,8.1763616,-0.025603451843
553,8.6681056,-0.0247995596298
554,8.8916256,-0.023826361407
555,8.806688,-0.0227011486416
556,8.538464,-0.0218644451061
557,8.2210656,-0.0205364289894
558,7.912608,-0.0191521238543
559,7.37616,-0.018207521346
560,6.839712,-0.0167704302735
561,6.6564256,-0.0158065675418
562,6.48208,-0.0148432359795
563,6.03504,-0.0138817572926
564,5.051552,-0.0129204264386
565,4.24688,-0.0124394353656
566,3.933952,-0.0114775554599
567,3.3528,-0.0109973182465
568,2.3201376,-0.0105179814353
569,1.8730976,-0.0100398269609
570,1.6942816,-0.0100398269609
571,1.6942816,-0.00956310316269
572,1.654048,-0.00956310316269
573,1.654048,-0.00908799469525
574,1.6048736,-0.00908799469525
575,1.6942816,-0.0086146425556
576,1.398486604,-0.0086146425556
577,0.8449056,-0.00814313144388
578,0.0,-0.00814313144388
579,0.0,-0.00814313144388
580,0.0,-0.00814313144388
581,0.0,-0.00814313144388
582,0.0,-0.00814313144388
583,0.0,-0.00814313144388
584,0.0,-0.00814313144388
585,0.0,-0.00814313144388
586,0.0,-0.00814313144388
587,1.207008,-0.00814313144388
588,1.966976,-0.00814313144388
589,2.637536,-0.00767354080157
590,2.9459936,-0.00720612350771
591,2.637536,-0.00674122116202
592,2.2352,-0.00627924454917
593,2.190496,-0.0058206158801
594,2.414016,-0.0058206158801
595,2.68224,-0.00536567444709
596,2.7224736,-0.00491468342658
597,2.7671776,-0.00446768185237
598,3.039872,-0.00402796907173
599,3.1695136,-0.00359181701923
600,3.263392,-0.00315888970426
601,3.531616,-0.0023015471762
602,3.531616,-0.00187697927396
603,3.308096,-0.00145538495386
604,2.816352,-0.00103721872125
605,2.5436576,-0.000622969007146
606,2.2754336,-0.000622969007146
607,1.743456,-0.000213018212918
608,1.4707616,0.000192268862386
609,1.56464,0.000192268862386
610,2.0519136,0.0005924917147
611,2.592832,0.0005924917147
612,2.87744859525,0.000987220457631
613,2.68224,0.00137594342134
614,2.0519136,0.00175816137805
615,1.743456,0.00213350662797
616,1.6942816,0.00213350662797
617,1.966976,0.00250166785924
618,2.2352,0.0028624276685
619,2.5436576,0.00321556657633
620,2.68224,0.00321556657633
621,2.369312,0.00356076280575
622,1.8283936,0.00389773524262
623,1.6048736,0.00389773524262
624,1.430528,0.00422646774867
625,1.4707616,0.00422646774867
626,2.414016,0.00454704457651
627,2.79514859618,0.00485968662732
628,2.94679180926,0.00516454698879
629,3.844544,0.00546137084163
630,5.7623456,0.00602914340089
631,6.84257270615,0.00655876576238
632,7.22621301372,0.00704694158388
633,7.7293216,0.00769483311689
634,8.761984,0.00823424929053
635,9.38784,0.00866470329271
636,9.656064,0.00908233835038
