time(s),speed(m/s),grade
0,23.02256,0.0173540098992
1,23.4696,0.0163455578166
2,24.006048,0.0145012528791
3,24.542496,0.0121932380163
4,25.123648,0.00867208107768
5,25.660096,0.00442369501906
6,26.241248,0.000586942130953
7,26.8224,-0.00340342931871
8,27.448256,-0.00747203560926
9,28.0696416,-0.011035653018
10,28.6954976,-0.0144622252708
11,29.3213536,-0.0178648018566
12,29.906976,-0.0207761544979
13,30.2154336,-0.0231488640963
14,30.2154336,-0.0246998102378
15,30.2601376,-0.0253939544547
16,30.4389536,-0.0255448481901
17,30.7071776,-0.0255793807355
18,30.9306976,-0.025768722381
19,31.024576,-0.0259964659125
20,31.06928,-0.0259250847687
21,30.979872,-0.025421654849
22,30.8859936,-0.0249072565866
23,30.6624736,-0.0246112362647
24,30.756352,-0.0247149960479
25,30.801056,-0.0252026247419
26,30.8859936,-0.0256391230453
27,30.8859936,-0.0254146669738
28,30.9306976,-0.0240921568996
29,30.8859936,-0.0213034806549
30,30.8859936,-0.0179697262878
31,30.801056,-0.0143894255221
32,30.801056,-0.0103443802094
33,30.8859936,-0.00665019651105
34,31.024576,-0.00323012109034
35,31.1095136,0.000330703377666
36,31.06928,0.00361656423757
37,31.06928,0.00680810581518
38,31.1095136,0.00980497444329
39,31.1095136,0.0124038302693
40,31.1095136,0.0140825346443
41,31.248096,0.0157251484415
42,31.1095136,0.0171758194215
43,30.801056,0.0185385736179
44,30.4389536,0.019972630771
45,30.085792,0.0211377919283
46,29.862272,0.0217748423744
47,29.72816,0.0219541982301
48,29.72816,0.0218236305994
49,29.50464,0.0216375889839
50,29.3988419549,0.0214228047074
51,29.4270638877,0.0209764414976
52,29.459936,0.0205193654066
53,29.415232,0.0203171001166
54,29.415232,0.020453337427
55,29.5895776,0.0209440681434
56,29.72816,0.0212323397765
57,29.7683936,0.0205636084997
58,29.7683936,0.0185515680775
59,29.8130976,0.015760571667
60,29.9919136,0.0130238304118
61,29.9919136,0.0100821590078
62,29.9919136,0.0073943183289
63,30.1752,0.00474855388826
64,30.354016,0.0019741935648
65,30.354016,-0.000812074051415
66,30.39872,-0.00355223168835
67,30.39872,-0.00613088069687
68,30.4389536,-0.00865552517776
69,30.4836576,-0.0117054276987
70,30.4836576,-0.0144909044125
71,30.4836576,-0.0171054811424
72,30.4836576,-0.0193003042362
73,30.4389536,-0.0207561348797
74,30.4389536,-0.0214044500989
75,30.309312,-0.0214812573755
76,30.39872,-0.0213264959478
77,30.354016,-0.0211858827019
78,30.39872,-0.0210704388111
79,30.4389536,-0.0210372107958
80,30.4389536,-0.0211689148223
81,30.4389536,-0.0214377139784
82,30.4389536,-0.0217604301587
83,30.39872,-0.0219919451757
84,30.354016,-0.0219876919019
85,30.309312,-0.021804602114
86,30.309312,-0.0216108377787
87,30.354016,-0.0215384691576
88,30.354016,-0.0216155361994
89,30.39872,-0.0216772822181
90,30.39872,-0.021549668807
91,30.354016,-0.0212423469977
92,30.4389536,-0.0209084613604
93,30.354016,-0.0206427344097
94,30.354016,-0.0206066665892
95,30.2601376,-0.0203528919955
96,30.309312,-0.0193983474948
97,30.39872,-0.0181639329183
98,30.354016,-0.0167505778254
99,30.39872,-0.0150365059999
100,30.354016,-0.0135355349207
101,30.309312,-0.0126330182682
102,30.2601376,-0.0120995328061
103,30.354016,-0.0115604637579
104,30.2601376,-0.0106650771679
105,30.39872,-0.00944026131271
106,30.354016,-0.00798354236146
107,30.39872,-0.00659505954006
108,30.2601376,-0.00522182702898
109,30.2601376,-0.00385660336398
110,30.2154336,-0.00218998675567
111,30.2154336,-0.000208367330393
112,30.2601376,0.00196975993572
113,30.2601376,0.00403078268588
114,30.309312,0.00593610103668
115,30.2154336,0.00755299715414
116,30.2601376,0.00876659542076
117,30.2601376,0.00955030015079
118,30.2601376,0.00981886541244
119,30.2601376,0.00955522156066
120,30.2601376,0.00890268602757
121,30.354016,0.00803562243229
122,30.354016,0.00691310358506
123,30.3356270363,0.00555550027232
124,30.331706083,0.00404940466821
125,30.3389400882,0.00254341025457
126,30.354016,0.000827597103253
127,30.354016,-0.000397310084627
128,30.2154336,-0.00132554846525
129,29.862272,-0.00217787376671
130,29.638752,-0.00295262360571
131,29.459936,-0.00365367404067
132,29.459936,-0.00433679701072
133,29.415232,-0.00488373183066
134,29.415232,-0.00532298017617
135,29.5895776,-0.00574154226033
136,29.7683936,-0.00608221949712
137,29.862272,-0.00637457109622
138,29.862272,-0.00656608333052
139,29.862272,-0.00668073730978
140,29.862272,-0.00655336707576
141,29.862272,-0.00615002274653
142,29.906976,-0.00586039699928
143,29.906976,-0.00571046383299
144,29.906976,-0.00572076317679
145,29.906976,-0.00570073970389
146,29.8146004695,-0.00554075847261
147,29.6823881514,-0.0047632425043
148,29.6065897576,-0.00366843211313
149,29.683456,-0.00367438144774
150,29.862272,-0.00471180601039
151,29.8130976,-0.00590748510763
152,29.95168,-0.00718541712159
153,29.906976,-0.00816165830769
154,29.906976,-0.00887533744831
155,29.906976,-0.00936353502967
156,29.906976,-0.00964836388821
157,29.95168,-0.00978509927416
158,29.95168,-0.00988293862043
159,29.906976,-0.00999605913261
160,30.085792,-0.0100472108039
161,30.2154336,-0.0102508397788
162,30.309312,-0.0105188691152
163,30.354016,-0.010751754302
164,30.354016,-0.0109616105677
165,30.309312,-0.0111163684066
166,30.309312,-0.0109904322855
167,30.354016,-0.0107878860317
168,30.39872,-0.0105629447771
169,30.39872,-0.0103248453736
170,30.39872,-0.0100994763711
171,30.354016,-0.00985839127234
172,30.39872,-0.00963160513636
173,30.39872,-0.00947166251431
174,30.354016,-0.00961518894273
175,30.354016,-0.009507371501
176,30.39872,-0.00869687247979
177,30.354016,-0.00717806071106
178,30.309312,-0.00502609763198
179,30.309312,-0.00252600652903
180,30.2601376,1.13382770516e-06
181,30.2154336,0.00280141914717
182,30.1752,0.00543059607189
183,30.2154336,0.0079462186627
184,30.2154336,0.0096262325932
185,30.1752,0.0100528567563
186,30.130496,0.00957876051451
187,30.1752,0.0105756473079
188,30.2154336,0.0169883767668
189,30.1752,0.0213256489443
190,30.0983697989,0.0205660937665
191,30.130496,0.018640761202
192,30.309312,0.0170816378901
193,30.309312,0.0162913689024
194,30.2601376,0.015977016199
195,30.309312,0.0159704332784
196,30.309312,0.0162218977776
197,30.309312,0.0166435688131
198,30.309312,0.0170667266472
199,30.309312,0.0172365508473
200,30.354016,0.0169054217772
201,30.309312,0.0161895567069
202,30.309312,0.0153134715509
203,30.309312,0.0143529936431
204,30.309312,0.0132420282553
205,30.354016,0.0119103038066
206,30.354016,0.0103225258057
207,30.354016,0.00893479982791
208,30.354016,0.00769511090026
209,30.354016,0.00659585245642
210,30.4106177477,0.00580106719064
211,30.4591196888,0.00531263393402
212,30.39872,0.00501163519641
213,30.2601376,0.00494190989034
214,30.354016,0.00507948783948
215,30.354016,0.00522518944057
216,30.39872,0.00503917294032
217,30.354016,0.00468298774917
218,30.354016,0.00432157960364
219,30.354016,0.00442500796554
220,30.309312,0.00494167476469
221,30.309312,0.00523481538156
222,30.309312,0.00470569224078
223,30.309312,0.00297759907102
224,30.354016,-2.88357193459e-05
225,30.39872,-0.00307851502567
226,30.39872,-0.00591207931512
227,30.4389536,-0.0084011371199
228,30.4836576,-0.0103503152478
229,30.4836576,-0.0114005068565
230,30.4389536,-0.0117215820132
231,30.4389536,-0.0118684575168
232,30.354016,-0.0120171962772
233,30.354016,-0.0122171467842
234,30.354016,-0.0125719153745
235,30.354016,-0.0127574725722
236,30.4389536,-0.0123782610499
237,30.39872,-0.011865663705
238,30.354016,-0.0115196543933
239,30.354016,-0.0113824516229
240,30.39872,-0.011343501836
241,30.309312,-0.0116874338454
242,30.309312,-0.0121104345645
243,30.354016,-0.0119472173618
244,30.39872,-0.0104830575016
245,30.354016,-0.00729178430334
246,30.309312,-0.00250638279589
247,30.2601376,0.00304975292756
248,30.2154336,0.00830870210897
249,30.130496,0.0121112866466
250,30.1752,0.0143393783297
251,30.4389536,0.0157492748279
252,30.5438867291,0.0165202370311
253,30.4389536,0.0163626762928
254,30.2601376,0.0160789387632
255,30.2601376,0.0159800507884
256,30.2601376,0.0158448738002
257,30.309312,0.0156375664156
258,30.2154336,0.0154103153017
259,30.2154336,0.0152148845708
260,30.1752,0.0150834743584
261,30.2601376,0.0149997009137
262,30.309312,0.0150251265904
263,30.354016,0.0151001096582
264,30.354016,0.0152077460239
265,30.309312,0.0152595482365
266,30.309312,0.015286788942
267,30.2601376,0.0153610822761
268,30.2601376,0.0154686193428
269,30.309312,0.0155171746698
270,30.2154336,0.0152125047176
271,30.2154336,0.0142508477897
272,30.2601376,0.0123881674553
273,30.309312,0.00961548239771
274,30.39872,0.00627931499981
275,30.39872,0.00259791972104
276,30.4389536,-0.00121342383905
277,30.4389536,-0.00496670204213
278,30.4836576,-0.0089541519014
279,30.4836576,-0.0126370721179
280,30.4836576,-0.0162954302997
281,30.4836576,-0.0202804194003
282,30.4836576,-0.0235773361971
283,30.532832,-0.0265285804639
284,30.577536,-0.0283185472958
285,30.4836576,-0.0288848328303
286,30.4836576,-0.0288176956201
287,30.4389536,-0.0285969346352
288,30.4836576,-0.0282739344637
289,30.39872,-0.0279966758062
290,30.39872,-0.0280710263535
291,30.39872,-0.0283252278277
292,30.354016,-0.0281483691954
293,30.354016,-0.0277408284463
294,30.39872,-0.027421769948
295,30.39872,-0.0275138819379
296,30.39872,-0.0279878086116
297,30.39872,-0.0283766617105
298,30.39872,-0.0285251575276
299,30.39872,-0.0285998013348
300,30.39872,-0.0286121663958
301,30.354016,-0.0285930301842
302,30.354016,-0.0286033897556
303,30.354016,-0.0285022511553
304,30.309312,-0.0278595311516
305,30.309312,-0.0261447286552
306,30.309312,-0.0228335445903
307,30.309312,-0.0182199400968
308,30.2154336,-0.0131708068313
309,30.130496,-0.00889401069434
310,30.1752,-0.00615967597935
311,30.2154336,-0.00484249538539
312,30.2154336,-0.00442167281336
313,30.2154336,-0.00445987657104
314,30.2601376,-0.00468767526642
315,30.2601376,-0.00492899895003
316,30.2601376,-0.00507123452841
317,30.2601376,-0.00514232007895
318,30.1752,-0.00523583901545
319,30.2601376,-0.00530581333884
320,30.2601376,-0.00520813812605
321,30.309312,-0.00488027810519
322,30.39872,-0.00426423163858
323,30.39872,-0.00294033141734
324,30.39872,-0.000610512867214
325,30.3287230983,0.00237172036325
326,30.2601376,0.00526327792364
327,30.2601376,0.0079511127081
328,30.2154336,0.00979352410773
329,30.1752,0.0109123557345
330,30.2154336,0.0117130567704
331,30.2154336,0.012503247995
332,30.309312,0.0129913286788
333,30.309312,0.0130920630488
334,30.2601376,0.0129326665035
335,30.354016,0.0127711487511
336,30.354016,0.0127236365136
337,30.354016,0.0126700679809
338,30.309312,0.0126027769889
339,30.309312,0.012562941881
340,30.354016,0.0123509913506
341,30.354016,0.0121681419304
342,30.354016,0.0124580524072
343,30.309312,0.0127851710768
344,30.309312,0.0130194766693
345,30.309312,0.013282026013
346,30.354016,0.0134643854426
347,30.309312,0.0132893853845
348,30.309312,0.0122385224371
349,30.354016,0.00994331150247
350,30.39872,0.00597535583433
351,30.4389536,0.00159167238887
352,30.4389536,-0.00281511647791
353,30.4389536,-0.00671849231136
354,30.4389536,-0.00961066629863
355,30.4389536,-0.0113207948557
356,30.4836576,-0.0133250598866
357,30.532832,-0.0174497302225
358,30.577536,-0.0225393979062
359,30.577536,-0.0268523101317
360,30.62224,-0.0300176490556
361,30.62224,-0.0313072118655
362,30.577536,-0.0314642888249
363,30.4836576,-0.0310164705919
364,30.4389536,-0.0307291966632
365,30.4389536,-0.0309723933222
366,30.4389536,-0.031391946586
367,30.39872,-0.0317188793006
368,30.4389536,-0.0314727051235
369,30.4389536,-0.0300887413726
370,30.39872,-0.0282537276629
371,30.39872,-0.0264865792222
372,30.309312,-0.0249644879787
373,30.309312,-0.0237442487749
374,30.309312,-0.022351685527
375,30.2601376,-0.0208768196657
376,30.354016,-0.0191199168768
377,30.354016,-0.0172576745917
378,30.309312,-0.0158549207356
379,30.2601376,-0.0152724784119
380,30.2601376,-0.014982266416
381,30.309312,-0.0141205987059
382,30.354016,-0.0124182445948
383,30.354016,-0.0100292058251
384,30.309312,-0.00756314878081
385,30.309312,-0.00515581093929
386,30.2601376,-0.0022081647324
387,30.2601376,0.000827016476002
388,30.2601376,0.00351504368186
389,30.2154336,0.00626835873755
390,30.2154336,0.00878290108992
391,30.2154336,0.0110655077245
392,30.2601376,0.012660830186
393,30.2601376,0.0129911270564
394,30.2601376,0.0118395690543
395,30.309312,0.00914691806927
396,30.354016,0.00593219457286
397,30.354016,0.00267231442759
398,30.39872,0.000318797382208
399,30.39872,-0.00149736303116
400,30.4389536,-0.00265149449042
401,30.4389536,-0.00314833068612
402,30.4389536,-0.00290827475939
403,30.4389536,-0.00200943103164
404,30.4389536,-0.000447693056328
405,30.39872,0.00197705934232
406,30.309312,0.00561974020787
407,30.1932384034,0.0105107601569
408,30.0886838434,0.0164733464441
409,30.0366176,0.0229806456012
410,30.0366176,0.0287552763258
411,29.9919136,0.0321667318146
412,29.9919136,0.0321393005158
413,30.0366176,0.0289515208019
414,30.1752,0.0242273095091
415,30.309312,0.0189142636492
416,30.39872,0.014505624423
417,30.39872,0.0102607868384
418,30.4836576,0.0061036799571
419,30.4836576,0.00207701940856
420,30.4836576,-0.00108763654713
421,30.532832,-0.00401253680462
422,30.4389536,-0.00714534511646
423,30.4389536,-0.0102315157622
424,30.532832,-0.0140348159443
425,30.577536,-0.0185581834252
426,30.577536,-0.0219289535931
427,30.532832,-0.025062487193
428,30.62224,-0.0276662077005
429,30.6624736,-0.0296452351502
430,30.62224,-0.030987430381
431,30.532832,-0.0313450567484
432,30.4836576,-0.0307638265974
433,30.39872,-0.0291559137053
434,30.354016,-0.0261677298542
435,30.39872,-0.0225376637047
436,30.354016,-0.0174259065662
437,30.354016,-0.0102339995608
438,30.309312,-0.00247889462827
439,30.130496,0.00439267137869
440,30.085792,0.00919674356541
441,30.085792,0.0116096699414
442,30.130496,0.0124450794875
443,30.1752,0.0126252899823
444,30.2154336,0.0127613213112
445,30.2601376,0.0129891784551
446,30.2601376,0.0126754582751
447,30.2601376,0.011281315093
448,30.354016,0.00851643110179
449,30.39872,0.00515741636357
450,30.39872,0.00109997490501
451,30.4389536,-0.00364696745314
452,30.532832,-0.00856738847954
453,30.532832,-0.0124960743831
454,30.577536,-0.0157029592456
455,30.577536,-0.0188473249927
456,30.7071776,-0.0223853347363
457,30.577536,-0.0248515579592
458,30.39872,-0.0262561793838
459,30.62224,-0.0269771764994
460,30.532832,-0.0273854641534
461,30.4389536,-0.0275276361783
462,30.4836576,-0.0274581281873
463,30.532832,-0.0274964321063
464,30.532832,-0.0272359327715
465,30.4836576,-0.0267811201594
466,30.39872,-0.0269028254674
467,30.39872,-0.0271685894465
468,30.4389536,-0.0269717429593
469,30.39872,-0.0268481535603
470,30.39872,-0.0273441782394
471,30.39872,-0.027686910649
472,30.354016,-0.0277983437539
473,30.4389536,-0.0272934116942
474,30.309312,-0.0265470849764
475,30.354016,-0.0249820245688
476,30.39872,-0.0224577109611
477,30.39872,-0.0194055355444
478,30.1752,-0.0152317257229
479,30.2154336,-0.0111718606491
480,30.1752,-0.00632526163452
481,30.130496,-0.00158891099947
482,30.2601376,0.00292331808381
483,30.130496,0.00731839192272
484,30.1752,0.012220078333
485,30.1752,0.0166814643626
486,30.1752,0.0202809861998
487,30.130496,0.0222369856436
488,30.085792,0.0226632348399
489,30.085792,0.0222136761141
490,30.2154336,0.0218723021136
491,30.2154336,0.021969081679
492,30.2601376,0.0220361015685
493,30.2154336,0.0220736371829
494,30.2601376,0.022048818391
495,30.309312,0.0219164417138
496,30.2601376,0.0216355385832
497,30.309312,0.0208594297712
498,30.309312,0.0192403326447
499,30.354016,0.0163098434668
500,30.39872,0.0129142014108
501,30.4389536,0.00942566112001
502,30.354016,0.00608433947961
503,30.2601376,0.00226775122748
504,30.309312,-0.00149701424725
505,30.39872,-0.00477462357155
506,30.4389536,-0.00723140267995
507,30.532832,-0.00847482258766
508,30.4389536,-0.00885725648313
509,30.4389536,-0.00885077625283
510,30.4389536,-0.00876184542094
511,30.39872,-0.00889311751988
512,30.39872,-0.00904738783906
513,30.39872,-0.00912120078127
514,30.4389536,-0.00911282842723
515,30.39872,-0.00894484014551
516,30.4389536,-0.00854056478296
517,30.4129407957,-0.00833402707279
518,30.354016,-0.0085746261129
519,30.354016,-0.0089413932624
520,30.39872,-0.00920471246675
521,30.39872,-0.00894312567139
522,30.4389536,-0.00875391385505
523,30.39872,-0.00941565584629
524,30.39872,-0.0103108459997
525,30.4389536,-0.0108227280093
526,30.4389536,-0.0105321226898
527,30.4389536,-0.00942429240631
528,30.39872,-0.00828911781287
529,30.354016,-0.00755574472949
530,30.309312,-0.00708350314208
531,30.309312,-0.00668523697648
532,30.309312,-0.00654663528929
533,30.2154336,-0.00682556429619
534,30.354016,-0.00757700492119
535,30.354016,-0.0081426289936
536,30.354016,-0.00856199274294
537,30.4836576,-0.00887331269597
538,30.6624736,-0.00879444415222
539,30.756352,-0.00863167514791
540,30.801056,-0.00838415700248
541,30.801056,-0.00829060313438
542,30.801056,-0.00846077292322
543,30.756352,-0.00878628212457
544,30.84576,-0.00928105984688
545,30.84576,-0.0093043986852
546,30.801056,-0.00871014082398
547,30.84576,-0.00807577209687
548,30.801056,-0.00800958679992
549,30.84576,-0.00830868242147
550,30.84576,-0.00866038538693
551,30.801056,-0.00925505337348
552,30.801056,-0.00989064412849
553,30.801056,-0.0102666682783
554,30.8859936,-0.00947807942985
555,30.8859936,-0.00768652095372
556,30.84576,-0.0053356336501
557,30.756352,-0.00288973844469
558,30.756352,-0.000794539829904
559,30.756352,0.00158687707436
560,30.801056,0.0043539997576
561,30.756352,0.00746109867532
562,30.7071776,0.0107716545603
563,30.6624736,0.0132171289889
564,30.6624736,0.0151105962773
565,30.6624736,0.0162664733443
566,30.7071776,0.016919368569
567,30.7071776,0.0174940666071
568,30.756352,0.0182897765512
569,30.7071776,0.0188759177594
570,30.7071776,0.0187892481527
571,30.756352,0.0182821851679
572,30.756352,0.0175348571112
573,30.577536,0.017448404445
574,30.801056,0.0180053018479
575,30.801056,0.0184823681055
576,30.801056,0.0185615152788
577,30.756352,0.0181192164287
578,30.756352,0.0175740996704
579,30.801056,0.0172823666759
580,30.9306976,0.0174755145157
581,30.84576,0.0180749892946
582,30.801056,0.0179353072867
583,30.756352,0.0163065302672
584,30.801056,0.0131952375417
585,30.84576,0.00927079113331
586,30.801056,0.00464652825373
587,30.8859936,0.0006412633365
588,30.9306976,-0.00287339366963
589,30.9554158796,-0.00620708315621
590,30.9749173483,-0.00983727725969
591,30.979872,-0.0133893964696
592,30.979872,-0.017001783511
593,31.024576,-0.0206887769488
594,31.06928,-0.0234277736876
595,31.1095136,-0.0250812798419
596,31.06928,-0.0258965078161
597,31.024576,-0.0261899902309
598,30.9306976,-0.0263185251282
599,30.8859936,-0.026494478579
600,30.9306976,-0.0265802525301
601,30.9306976,-0.0263433592612
602,30.9306976,-0.0257495666258
603,30.9306976,-0.024294367642
604,30.8859936,-0.0220880915168
605,30.84576,-0.0193065312684
606,30.756352,-0.0165475230505
607,30.756352,-0.0132950948271
608,30.7071776,-0.00981712101238
609,30.7071776,-0.00583908207568
610,30.6624736,-0.00178715358124
611,30.62224,0.00194220468066
612,30.6624736,0.00527948200224
613,30.62224,0.00822504839467
614,30.6624736,0.0107788981255
615,30.62224,0.0131357283219
616,30.6624736,0.014830222664
617,30.6624736,0.0155415856072
618,30.6624736,0.0149247849984
619,30.7071776,0.01421395418
620,30.7071776,0.0138040142017
621,30.7071776,0.0133437355537
622,30.7071776,0.0129099335703
623,30.7071776,0.0129282184115
