time(s),speed(m/s),grade
0,7.37616,0.0298565067773
1,7.867904,0.0296675095755
2,7.9528416,0.0295129760047
3,7.9528416,0.0294289868838
4,8.04672,0.0293298057529
5,8.2210656,0.029260229226
6,8.314944,0.0292188527042
7,8.583168,0.0292042506764
8,8.8469216,0.0292164159993
9,9.3386656,0.0292545499712
10,9.83488,0.0293170617748
11,10.4562656,0.029435582204
12,11.041888,0.0295467472714
13,11.3503456,0.0297218188909
14,11.667744,0.0299807337381
15,11.7526816,0.0302156647361
16,12.0182300957,0.0304791065474
17,11.9762016,0.0308311781418
18,11.3056416,0.0311123787985
19,10.8586016,0.0313464350289
20,10.3455859655,0.0315591481855
21,10.0584,0.031907575639
22,10.1880416,0.0321921161401
23,9.924288,0.0325344528959
24,9.61136,0.0326934039511
25,9.253728,0.0327178158001
26,8.8916256,0.0325773135064
27,8.1763616,0.0320485621982
28,7.420864,0.0316078945258
29,6.7905376,0.0307128996802
30,6.392672,0.029955281773
31,6.3434976,0.0285715073616
32,6.5670176,0.0274855040144
33,6.750304,0.0261894428602
34,6.750304,0.0240059604426
35,6.526784,0.0223984530698
36,6.2093856,0.0206733131351
37,5.8964576,0.0188388063504
38,5.6729376,0.0169057123806
39,5.588,0.014887031778
40,5.35219864496,0.013850887824
41,5.185664,0.011735520546
42,5.409184,0.00981738032189
43,5.945632,0.00786768704447
44,6.25856,0.00577921548079
45,6.616192,0.00355883418671
46,7.242048,0.000219772696569
47,7.465568,-0.00310846207388
48,7.5058016,-0.00531239368916
49,7.644384,-0.00858710639974
50,7.644384,-0.0107456199672
51,7.59968,-0.0139433092788
52,7.59968,-0.0160433182277
53,7.465568,-0.0191360431367
54,7.15264,-0.0211578018828
55,6.7905376,-0.0241223356806
56,6.1199776,-0.0260413048504
57,5.2258976,-0.026979976644
58,4.24688,-0.0288110737444
59,3.308096,-0.0297020348779
60,2.2754336,-0.0305759023147
61,1.8730976,-0.0305759023147
62,2.01168,-0.0314321630609
63,2.68224,-0.0322699330447
64,3.4377376,-0.0330882528007
65,4.157472,-0.0338862317111
66,4.6447456,-0.0354178439048
67,5.185664,-0.0361499148973
68,5.6729376,-0.0375353936667
69,6.2093856,-0.0388157502319
70,6.5670176,-0.0399942257968
71,6.72938257878,-0.0415596281979
72,6.303264,-0.0424664103816
73,5.14096,-0.0432640539701
74,4.1082976,-0.0436220820454
75,2.90576,-0.0439536158681
76,1.8730976,-0.0442595102418
77,0.983488,-0.0442595102418
78,0.0,-0.0442595102418
79,0.0,-0.0442595102418
80,0.0,-0.0442595102418
81,0.0,-0.0442595102418
82,1.743456,-0.044540830287
83,2.4989536,-0.0447990293697
84,2.85596469748,-0.0450358225523
85,2.90666775685,-0.0452530555613
86,2.90576,-0.0454525542382
87,3.039872,-0.0456355801556
88,3.12928,-0.0458031116275
89,2.816352,-0.0459558547925
90,2.592832,-0.0460878333393
91,2.68224,-0.046206948092
92,2.90576,-0.046313248964
93,2.9459936,-0.0464072051256
94,3.308096,-0.0464895363748
95,3.6612576,-0.0465615458859
96,3.9741856,-0.0466802976815
97,4.1082976,-0.0467296956687
98,3.9741856,-0.0468129244777
99,4.02336,-0.0468474818041
100,4.02336,-0.0469040251815
101,3.531616,-0.0469228164805
102,3.263392,-0.0469339170287
103,3.12928,-0.0469361634514
104,3.12928,-0.0469284669112
105,3.263392,-0.0469101500615
106,3.3528,-0.0468814597844
107,3.6612576,-0.0467960045624
108,4.02336,-0.0467412894348
109,4.3318176,-0.0466106519461
110,4.828032,-0.046535834651
111,5.14096,-0.0463715638086
112,5.051552,-0.0461937983184
113,4.6447456,-0.046100711282
114,3.79984,-0.04590509779
115,2.9906976,-0.0458028642454
116,2.2352,-0.0456984271795
117,1.6048736,-0.0456984271795
118,1.296416,-0.0455926596493
119,1.6048736,-0.0455926596493
120,2.369312,-0.0454865074804
121,3.1695136,-0.045380968133
122,3.8847776,-0.045277151063
123,4.515104,-0.0450793102277
124,5.051552,-0.0449873722736
125,5.409184,-0.0447371623696
126,5.588,-0.0445828522983
127,5.409184,-0.0445085306203
128,5.36448,-0.0443671023917
129,5.4494176,-0.0442365855978
130,5.5388256,-0.0441173386294
131,5.6729376,-0.0440092638702
132,5.632704,-0.0439117488534
133,5.4494176,-0.043821277242
134,5.275072,-0.0437276446515
135,5.275072,-0.0436752192546
136,5.3153056,-0.0435520289711
137,5.4494176,-0.0434026388297
138,5.588,-0.0432322275113
139,5.856224,-0.0430435147919
140,6.48208,-0.0428347630067
141,7.2822816,-0.0426010905372
142,8.091424,-0.0421965383882
143,8.8469216,-0.0417138773339
144,9.5174816,-0.0411106487091
145,10.147808,-0.0403360692411
146,10.72896,-0.0389793466592
147,11.265408,-0.0371933934251
148,11.62304,-0.0350124459593
149,11.7526816,-0.0324505288314
150,11.935968,-0.0295540977776
151,12.07008,-0.0262790843688
152,12.159488,-0.021969765754
153,12.2936,-0.0185387782319
154,12.338304,-0.0152018114399
155,12.2444256,-0.0119999938837
156,12.2444256,-0.00892502852047
157,12.114784,-0.00593657933779
158,12.07008,-0.00299726686139
159,11.891264,-8.39942645039e-05
160,11.7526816,0.00276122727425
161,11.488928,0.00569806191296
162,10.9760730041,0.00880386501975
163,10.818368,0.0112567487419
164,10.665720781,0.0146725044295
165,10.4115616,0.0182006368578
166,10.0584,0.0208708769572
167,9.5621856,0.0243609139391
168,9.16432,0.0268667872461
169,8.8916256,0.0292184676257
170,8.806688,0.0313822150295
171,8.71728,0.0338620720816
172,8.6681056,0.0355329470208
173,7.9975456,0.0365354026493
174,6.92912,0.0378192064211
175,5.9858656,0.0385330889774
176,5.185664,0.0391408527415
177,4.515104,0.0394064423227
178,4.27566502043,0.0398633880538
179,4.1977056,0.0400563841617
180,3.933952,0.0402201429295
181,3.531616,0.0404949246126
182,3.12928,0.0406088899302
183,2.68224,0.0407086288372
184,2.190496,0.0407086288372
185,1.97672127961,0.0407946715591
186,1.8730976,0.0408674465546
187,1.6942816,0.0408674465546
188,1.8283936,0.0409274285058
189,2.68224,0.0409751705526
190,3.79984,0.0410114935404
191,4.91744,0.041038031606
192,6.079744,0.0410618320342
193,7.1034656,0.0410516877755
194,8.091424,0.0409880348441
195,8.9408,0.0408840661367
196,9.700768,0.040743255457
197,10.371328,0.0405809641016
198,11.041888,0.0403941213105
199,11.0793486784,0.0402682557014
200,10.594848,0.040204697483
201,10.0092256,0.0401994620084
202,9.86211762211,0.0402199750358
203,10.326624,0.0402602707116
204,11.3056416,0.0403129213892
205,12.2444256,0.0403810429738
206,13.1385056,0.0404700693492
207,13.902944,0.0405805843627
208,14.5690336,0.0406713293978
209,15.065248,0.0407582861797
210,15.512288,0.0408483697693
211,15.735808,0.0409771495919
212,16.048736,0.0411296308318
213,16.1336736,0.0410960871366
214,16.048736,0.0406152282004
215,15.959328,0.0396918134505
216,15.9101536,0.0378866567771
217,15.735808,0.0358250335565
218,15.2395936,0.0332786000297
219,14.7925536,0.0302475687286
220,14.30528,0.0268720198249
221,13.902944,0.0233730401538
222,13.5408416,0.019898200897
223,13.18768,0.0171809138713
224,12.8702816,0.0138780225863
225,12.561824,0.0112934311812
226,12.4679456,0.00878461845147
227,12.606528,0.00634439573376
228,12.606528,0.00394625348879
229,12.51712,0.000989314273931
230,12.338304,-0.0013625488827
231,12.2444256,-0.00373352221805
232,12.07008,-0.00610997214173
233,11.9762016,-0.00844689145781
234,11.488928,-0.0107214905082
235,10.147808,-0.0123756356672
236,8.1763616,-0.0139752206899
237,6.079744,-0.0155091669741
238,4.6447456,-0.0160047735328
239,3.308096,-0.0169722307947
240,2.592832,-0.0174440641562
241,1.6942816,-0.0178965666982
242,0.89408,-0.0178965666982
243,0.0,-0.0178965666982
244,0.0,-0.0178965666982
245,0.0,-0.0178965666982
246,0.0,-0.0178965666982
247,0.0,-0.0178965666982
248,0.0,-0.0178965666982
249,0.89408,-0.0178965666982
250,2.0519136,-0.0183410981047
251,2.861056,-0.0183410981047
252,3.308096,-0.0192039600296
253,3.4377376,-0.0196210878286
254,3.4377376,-0.0200280683098
255,2.9459936,-0.020424472765
256,2.0519136,-0.0208098549111
257,1.2472416,-0.0211837033777
258,0.8449056,-0.0211837033777
259,0.0,-0.0211837033777
260,0.0,-0.0211837033777
261,0.0,-0.0211837033777
262,0.0,-0.0211837033777
263,0.0,-0.0211837033777
264,0.0,-0.0211837033777
265,0.0,-0.0211837033777
266,0.0,-0.0211837033777
267,0.0,-0.0211837033777
268,0.0,-0.0211837033777
269,0.0,-0.0211837033777
270,0.0,-0.0211837033777
271,1.6942816,-0.0215516592657
272,2.637536,-0.0215516592657
273,3.2142176,-0.0219062889229
274,3.531616,-0.0225731351882
275,3.79984,-0.0228849857217
276,3.9741856,-0.0231828737207
277,4.02336,-0.0234673043915
278,4.6447456,-0.0239977242526
279,5.7623456,-0.0244812329498
280,6.973824,-0.0249236750132
281,8.04672,-0.0253319818851
282,8.6681056,-0.0258980938056
283,8.63752736103,-0.026420558706
284,8.04672,-0.0269081654723
285,7.0140576,-0.0273746500604
286,5.632704,-0.0276737357456
287,4.5553376,-0.0279587347288
288,4.291584,-0.028094224387
289,4.02336,-0.0282243496679
290,4.1082976,-0.0284675500171
291,4.380992,-0.0285786127599
292,4.4704,-0.0287714549027
293,4.7788576,-0.0289120396628
294,5.36448,-0.0289589731378
295,5.7623456,-0.0290025799948
296,6.25856,-0.0289773777261
297,7.0140576,-0.0288161481607
298,7.7293216,-0.0286328458664
299,8.6234016,-0.0282652772156
300,9.5174816,-0.0277998979464
301,10.371328,-0.0272477265075
302,11.176,-0.0264301506965
303,12.0209056,-0.0255549788929
304,12.6467616,-0.0246184464178
305,13.0938016,-0.0232996557451
306,13.5408416,-0.0220660526373
307,13.9878816,-0.0202065500069
308,14.618208,-0.0179855811081
309,15.0160736,-0.0155229599582
310,15.2395936,-0.0129827203721
311,15.512288,-0.010489050563
312,15.5525216,-0.00812629046673
313,15.4631136,-0.0055729474806
314,15.378176,-0.00379989948228
315,15.065248,-0.00233280620161
316,14.75232,-0.00090042630363
317,14.5690336,0.000756557734624
318,14.4349216,0.00279260304661
319,14.5288,0.00525303747185
320,14.5690336,0.0080378153709
321,14.3455136,0.0103424406229
322,13.5408416,0.0130483064848
323,12.6467616,0.0149878901151
324,11.9762016,0.0171029122489
325,11.3056416,0.018227213624
326,10.550144,0.0195826799645
327,9.924288,0.0204918749974
328,9.656064,0.0213025247203
329,9.656064,0.0219916729798
330,9.9645216,0.0226921295304
331,10.103104,0.0230356874202
332,10.147808,0.0231994699247
333,10.147808,0.0231005342234
334,10.103104,0.0227821909185
335,9.209024,0.0222582314468
336,8.2210656,0.0215642676721
337,7.912608,0.0207773970604
338,7.420864,0.0202310442701
339,6.5670176,0.0194163902605
340,5.5388256,0.0188987962122
341,4.4704,0.0186537868698
342,3.4377376,0.0181975461625
343,2.4989536,0.0179869547548
344,1.8730976,0.0179869547548
345,1.743456,0.0177878821215
346,1.519936,0.0177878821215
347,1.34112,0.017600190723
348,0.0,0.017600190723
349,0.0,0.017600190723
350,0.0,0.017600190723
351,0.0,0.017600190723
352,0.0,0.017600190723
353,0.0,0.017600190723
354,1.8730976,0.017600190723
355,2.637536,0.0174237945189
356,2.816352,0.0172587102195
357,2.68224,0.0171050657221
358,2.592832,0.0169633447072
359,2.4989536,0.0168317509865
360,2.0519136,0.0167138832486
361,1.2472416,0.0166104173548
362,0.0,0.0166104173548
363,0.0,0.0166104173548
364,0.0,0.0166104173548
365,2.0519136,0.0165219104895
366,3.308096,0.0164488771218
367,3.9741856,0.0163917795754
368,4.380992,0.0163509958316
369,4.604512,0.0163186835321
370,4.5553376,0.0163526619418
371,4.02336,0.0163956575954
372,3.12928,0.016457210052
373,2.637536,0.0165381193484
374,2.45872,0.0166390814981
375,2.861056,0.0167605183425
376,3.933952,0.0169027233132
377,5.275072,0.0172495592562
378,6.526784,0.0176788653777
379,7.465568,0.0181912745612
380,7.5058016,0.0191199769488
381,7.3269856,0.0198445237685
382,6.48208,0.0210844728971
383,5.5388256,0.0220095511907
384,5.051552,0.0224994665398
385,4.738624,0.0235272219854
386,4.87769114237,0.0246052464618
387,5.185664,0.0251571885614
388,5.3153056,0.0262743831428
389,5.498592,0.0274016314114
390,5.945632,0.0285198178986
391,6.2093856,0.0296028583026
392,6.5670176,0.0306342510713
393,7.15264,0.031596848962
394,7.8232,0.0328805953739
395,8.583168,0.0339478252864
396,9.3386656,0.0347929813642
397,9.924288,0.0354310812842
398,10.4562656,0.0358899386335
399,11.041888,0.0362676690149
400,11.667744,0.0365014729967
401,12.4679456,0.0366806906708
402,13.232384,0.0368017255814
403,13.947648,0.0368090025152
404,14.618208,0.0366372873227
405,14.792755607,0.0362384274896
406,14.5690336,0.0358276861472
407,14.171168,0.0355023331877
408,13.679424,0.0352718704971
409,13.232384,0.035139049354
410,12.383008,0.0350657180938
411,10.6797856,0.0350703470206
412,9.030208,0.0351253546002
413,8.314944,0.0352222653104
414,7.9975456,0.0353592371701
415,8.091424,0.0355285180443
416,8.091424,0.0356541428177
417,7.3269856,0.0358535912971
418,6.392672,0.0359848688408
419,5.81152,0.0361038419592
420,4.7788576,0.036197259129
421,3.263392,0.0362303549797
422,2.01168,0.0362533031342
423,1.072896,0.0362533031342
424,0.0,0.0362533031342
425,0.983488,0.0362660059785
426,1.56464,0.0362660059785
427,2.3201376,0.0362686150195
428,2.5436576,0.0362686150195
429,2.3201376,0.0362614518586
430,1.4707616,0.0362451475021
431,0.0,0.0362451475021
432,0.0,0.0362451475021
433,0.0,0.0362451475021
434,1.3813536,0.0362211414053
435,2.5436576,0.0362211414053
436,3.3528,0.0361893049749
437,3.3528,0.036149573198
438,4.24688,0.0361013331427
439,5.3153056,0.0359776531883
440,6.25856,0.0358186503547
441,6.85025431208,0.0356314634813
442,6.526784,0.0353396991983
443,5.051552,0.0351664218517
444,3.531616,0.0350882688752
445,2.45872,0.0350156026943
446,1.966976,0.0349483705141
447,1.922272,0.0348865612678
448,2.414016,0.0348865612678
449,2.90576,0.0348301841007
450,2.90576,0.0347792430153
451,2.369312,0.0347337395384
452,1.78816,0.0346936736295
453,1.430528,0.0346587180982
454,1.207008,0.0346587180982
455,1.207008,0.0346587180982
456,1.3813536,0.0346293122839
457,1.3813536,0.0346293122839
458,2.145792,0.0346054569282
459,3.3528,0.0345871531019
460,4.604512,0.0345743975733
461,5.632704,0.0345654700636
462,6.303264,0.0345787449675
463,6.8799456,0.0346161809868
464,7.420864,0.0346764259241
465,7.5505056,0.0347911753808
466,7.689088,0.0349090385418
467,8.04672,0.0349748787471
468,8.27024,0.0350199974392
469,8.8469216,0.0349533823197
470,9.656064,0.0347230334459
471,10.4562656,0.0340751218558
472,11.220704,0.0332888087311
473,11.9762016,0.031851781825
474,12.561824,0.0295254066676
475,12.8702816,0.027348763148
476,13.232384,0.0249701670815
477,13.4112,0.0218223301023
478,13.5408416,0.0192189264554
479,13.277088,0.0159265305801
480,12.830048,0.0133486432368
481,12.2444256,0.0108816867246
482,11.7973856,0.00855934990842
483,11.7973856,0.0063332727185
484,12.07008,0.00413713044834
485,12.4679456,0.001340457081
486,12.830048,-0.000984429052458
487,13.232384,-0.00339554930019
488,13.63472,-0.00657282152611
489,13.947648,-0.00981748601229
490,14.0325856,-0.0130671722008
491,13.902944,-0.0164523842672
492,13.8090656,-0.0199852132014
493,13.724128,-0.0235255583004
494,13.5408416,-0.0263354637326
495,12.96416,-0.0296789582766
496,12.2936,-0.0327829038923
497,11.667744,-0.0349537164026
498,11.0821216,-0.0363697395114
499,10.4115616,-0.038000199822
500,9.656064,-0.0390394559412
501,8.761984,-0.0399578862306
502,7.8232,-0.0407779661935
503,7.37616,-0.0415079159131
504,7.2822816,-0.0419463491145
505,6.839712,-0.042528425455
506,6.2093856,-0.0428467291864
507,5.8964576,-0.0431017973621
508,5.498592,-0.0432916350397
509,5.051552,-0.0434187885981
510,4.3318176,-0.0434609545038
511,3.57632,-0.0434901051536
512,1.966976,-0.043507176033
513,1.0237216,-0.0435132770707
514,1.0237216,-0.0435132770707
515,1.2472416,-0.0435132770707
516,1.519936,-0.0435132770707
517,1.78816,-0.0435095716514
518,2.145792,-0.0435095716514
519,2.637536,-0.0434972732643
520,3.2142176,-0.0434777855246
521,3.621024,-0.0434527120179
522,3.933952,-0.0434232713384
523,4.1977056,-0.0433540716501
524,4.4212256,-0.0433146162626
525,4.5553376,-0.0432274423183
526,4.7788576,-0.0431803684536
527,5.3153056,-0.0430807281625
528,6.079744,-0.0429785294505
529,6.7905376,-0.0428826042966
530,7.3269856,-0.0427988111945
531,7.59968,-0.0426979546463
532,8.091424,-0.0426428027377
533,8.6681056,-0.0425572459781
534,9.0704416,-0.0424348734497
535,9.432544,-0.0422356623277
536,9.2939616,-0.0419146812068
537,8.806688,-0.0412029369495
538,8.1763616,-0.0403930496359
539,7.7740256,-0.0393302015117
540,7.37616,-0.0384788780719
541,6.8799456,-0.0369968270101
542,6.03504,-0.0358874109386
543,5.185664,-0.0346995698527
544,4.1977056,-0.0340822646059
545,3.3528,-0.0334533230149
546,2.9906976,-0.0328161478034
547,2.2352,-0.032174435107
548,1.56464,-0.0315321313286
549,0.0,-0.0315321313286
550,0.0,-0.0315321313286
551,0.0,-0.0315321313286
552,0.0,-0.0315321313286
553,0.0,-0.0315321313286
554,0.0,-0.0315321313286
555,0.0,-0.0315321313286
556,0.0,-0.0315321313286
557,1.56464,-0.0308933932224
558,2.0966176,-0.0302627300299
559,2.2754336,-0.0302627300299
560,2.4989536,-0.029644904878
561,2.3201376,-0.0290449631462
562,1.8283936,-0.0284678380725
563,1.78816,-0.0279163438034
564,1.6048736,-0.0279163438034
565,1.1578336,-0.027391537502
566,1.0237216,-0.027391537502
567,0.998018139202,-0.0268895132922
568,1.0237216,-0.0268895132922
569,1.1176,-0.0268895132922
570,1.34112,-0.0264032710657
571,2.0519136,-0.025919807953
572,2.57445105772,-0.0254243469752
573,2.592832,-0.0249035813619
574,2.190496,-0.0243411887006
575,2.145792,-0.0243411887006
576,2.5436576,-0.0237425040746
577,2.90576,-0.0231105071169
578,3.57632,-0.0217632230644
579,5.36448,-0.0195912704175
580,5.91691347613,-0.0188428653782
581,6.1199776,-0.0173344378331
582,7.197344,-0.0158359611838
583,7.9528416,-0.0136698467047
584,8.71728,-0.0123184530426
585,9.5174816,-0.00992876628978
586,10.147808,-0.00846557000107
587,10.818368,-0.00698818443719
588,11.5738656,-0.00620820292522
589,12.338304,-0.00551637401573
590,13.053568,-0.00511718290022
591,13.455904,-0.00488909083653
592,13.902944,-0.0048524949685
593,14.2561056,-0.00486251219898
594,14.394688,-0.00486150135876
595,14.30528,-0.00486336575309
596,14.08176,-0.00489762670694
597,13.455904,-0.00491860550041
598,12.6467616,-0.0049281850393
599,11.935968,-0.00494768328046
600,11.1268256,-0.00497696303218
601,10.4115616,-0.00504533951649
602,9.5174816,-0.00510038299448
603,8.6681056,-0.00513535094234
604,8.04672,-0.00515497498738
605,7.242048,-0.00516400037364
606,6.48208,-0.00516793535904
607,5.0023776,-0.00516734227647
608,3.621024,-0.00516630937411
609,2.7224736,-0.00516538644425
610,2.0966176,-0.00516510413435
611,1.8730976,-0.00516510413435
612,1.4707616,-0.00516609944045
613,1.1176,-0.00516609944045
614,0.9343136,-0.00516851679026
615,1.0237216,-0.00516851679026
616,1.34112,-0.00516851679026
617,2.0519136,-0.00517179092458
618,2.861056,-0.00517516819298
619,3.039872,-0.00517773456796
620,3.1695136,-0.00517893461286
621,3.531616,-0.00517864588524
622,3.57632,-0.00517690746378
623,3.57632,-0.00517390632798
624,3.3528,-0.00516990762105
625,2.4989536,-0.00516525413436
626,1.743456,-0.0051604653545
627,0.0,-0.0051604653545
628,0.0,-0.0051604653545
629,0.0,-0.0051604653545
630,0.0,-0.0051604653545
631,0.0,-0.0051604653545
632,0.0,-0.0051604653545
633,0.0,-0.0051604653545
634,0.0,-0.0051604653545
635,0.0,-0.0051604653545
636,0.0,-0.0051604653545
637,0.0,-0.0051604653545
638,0.0,-0.0051604653545
639,1.8283936,-0.0051604653545
640,2.7224736,-0.00515620546994
641,3.3528,-0.00515305430906
642,3.8847776,-0.00515152483123
643,4.068064,-0.00515559572549
644,4.1082976,-0.00516259341604
645,4.068064,-0.00517407822001
646,4.24688,-0.00521388493141
647,4.6447456,-0.00524395117453
648,5.14096,-0.00533016421371
649,5.36448,-0.00545899718176
650,5.8964576,-0.0056174122768
651,6.2093856,-0.00578705065824
652,6.48208,-0.00596616183363
