time(s),speed(m/s),grade
0,23.02256,-0.00213172054596
1,23.111968,0.00147051619433
2,23.201376,0.00611477309114
3,23.24608,0.0123734266577
4,23.335488,0.0156169176513
5,23.424896,0.0143564542765
6,23.5098336,0.00850522570132
7,23.69312,-0.000676536341517
8,23.8227616,-0.0108135953419
9,24.0462816,-0.0188821555613
10,24.14016,-0.0227976832052
11,24.2698016,-0.0211519080579
12,24.4039136,-0.0127361930822
13,24.4933216,-0.00182585478022
14,24.5872,0.00766340965745
15,24.7168416,0.0127455705027
16,24.81072,0.0146906174298
17,24.9403616,0.0156632482283
18,25.123648,0.0166855792576
19,25.25776,0.0183415039516
20,25.3874016,0.0206142692661
21,25.570688,0.0233354562543
22,25.7450336,0.0251855858364
23,25.883616,0.0263016701453
24,25.92832,0.026455198146
25,25.9685536,0.0258027318357
26,25.9685536,0.0245221014854
27,25.883616,0.0230380562799
28,25.8344416,0.0224727635465
29,25.7450336,0.0239688493093
30,25.5215136,0.0259776673888
31,25.3874016,0.0252134230136
32,25.347168,0.0196915803036
33,25.2979936,0.0109071100781
34,25.347168,-0.0018789523167
35,25.436576,-0.0132111091627
36,25.570688,-0.0228205963005
37,25.660096,-0.0272553341232
38,25.7450336,-0.0273201126696
39,25.8344416,-0.0240572315324
40,25.883616,-0.0190537361146
41,25.92832,-0.0149580699593
42,25.92832,-0.0115555870214
43,25.794208,-0.009768608481
44,25.570688,-0.00970305714408
45,25.3874016,-0.0107099536288
46,25.25776,-0.0107363049723
47,25.1638816,-0.00796836771132
48,25.123648,-0.0025906559109
49,25.123648,0.0050920415402
50,25.123648,0.0127009773205
51,25.03424,0.0226232386599
52,24.989536,0.032158739312
53,24.7168416,0.0395539231421
54,24.318976,0.0396458967116
55,24.14016,0.0287324581707
56,23.871936,0.00942574000261
57,23.69312,-0.0105637242476
58,23.648416,-0.0235557091715
59,23.648416,-0.027795149461
60,23.782528,-0.0264811549294
61,23.871936,-0.0234802023167
62,23.9568736,-0.0205335082751
63,23.9568736,-0.0170928338027
64,23.9568736,-0.0123776773675
65,23.91664,-0.00765300641268
66,23.871936,-0.00406739953349
67,23.871936,-0.00212137112481
68,23.91664,-0.00161953520713
69,23.9568736,-0.0026455396961
70,24.006048,-0.00549645218914
71,24.095456,-0.0100641521914
72,24.1803936,-0.0136713498875
73,24.14016,-0.0140551998734
74,24.1803936,-0.00994830705697
75,24.0462816,-0.00303978561225
76,24.0462816,0.00264559736313
77,23.559008,0.00355944716574
78,23.24608,-0.00265697014361
79,22.9286816,-0.0126773117258
80,22.664928,-0.0261291109637
81,22.530816,-0.0368228033631
82,22.4816416,-0.0415065071835
83,22.57552,-0.0411011530167
84,22.754336,-0.0355388347691
85,22.79904,-0.0266925282165
86,22.8392736,-0.0164806000299
87,22.79904,-0.00728583874419
88,22.7051616,-0.000597987679592
89,22.530816,0.00217249762522
90,22.352,0.00201759146082
91,22.217888,-0.000492563916975
92,22.083776,-0.00238250329521
93,21.9451936,-0.00246393473891
94,21.860256,0.000294673547593
95,21.9451936,0.00457436537647
96,22.12848,0.00957944816189
97,22.217888,0.015475620001
98,22.1687136,0.0207118138359
99,21.994368,0.0270332407064
100,21.770848,0.0329637500745
101,21.5875616,0.0386034595426
102,21.547328,0.0425264748969
103,21.45792,0.0439674967602
104,21.3640416,0.0421543698425
105,21.2746336,0.037583757678
106,21.2344,0.0314009399913
107,21.1405216,0.0254469170726
108,21.189696,0.0204338852935
109,21.2746336,0.0158328083083
110,21.4981536,0.0125550367987
111,21.860256,0.0107307562375
112,22.217888,0.0112859973144
113,22.530816,0.0144077847388
114,22.79904,0.019750975359
115,22.9286816,0.0270105354315
116,22.977856,0.0339753114844
117,22.977856,0.0401944560226
118,22.754336,0.0443240620381
119,22.664928,0.045245311313
120,22.530816,0.041766806108
121,22.530816,0.0310467355488
122,22.6157536,0.0168738662968
123,22.9286816,-0.000216774525311
124,23.2863136,-0.0103044653544
125,23.648416,-0.0103306768566
126,24.0462816,-0.000516073362664
127,24.453088,0.0175571613482
128,24.676608,0.0408315069752
129,24.542496,0.0566045747816
130,24.2698016,0.063715817915
131,23.8227616,0.0620210506937
132,23.3757216,0.0538422727247
133,23.0627936,0.03856863472
134,22.79904,0.0204484425686
135,22.7051616,0.00493963494142
136,22.754336,-0.00998372546745
137,22.888448,-0.0197244603503
138,23.1522016,-0.0280780890967
139,23.4696,-0.0344244968853
140,23.871936,-0.0399199354118
141,24.36368,-0.045395435473
142,24.900128,-0.050421003662
143,25.48128,-0.0524034454672
144,25.92832,-0.0456384278199
145,26.241248,-0.0292893030797
146,26.37536,-0.00736437751873
147,26.4155936,0.0143389457477
148,26.330656,0.0296682222693
149,26.15184,0.0408967142873
150,25.92832,0.0468568932659
151,25.48128,0.0483336468475
152,24.8509536,0.0455113727871
153,24.14016,0.0363658415099
154,23.5098336,0.023905358493
155,23.24608,0.0119860972063
156,23.24608,0.00120970934289
157,23.2863136,-0.00401229665241
158,23.3757216,-0.00427945347183
159,23.3757216,-0.00273273525495
160,23.3757216,-0.00173872504756
161,23.424896,-0.00176331685268
162,23.424896,-0.0021357214647
163,23.4696,-0.00270115711061
164,23.5992416,-0.00324927394339
165,23.648416,-0.00390942258015
166,23.5992416,-0.00470480418859
167,23.5098336,-0.00558223547049
168,23.4696,-0.00624531604542
169,23.335488,-0.00637678904027
170,23.201376,-0.00578351202029
171,23.02256,-0.00490878753696
172,22.8392736,-0.00406760961001
173,22.6157536,-0.00367786156128
174,22.3922336,-0.0037361707387
175,22.217888,-0.00415639438633
176,22.0346016,-0.00481304589571
177,21.68144,-0.00496109423018
178,21.3640416,-0.00362107518967
179,21.2746336,0.000515674135967
180,21.323808,0.0071816221633
181,21.45792,0.0175296112975
182,21.7216736,0.0267980990472
183,21.8110816,0.0352116316798
184,21.90496,0.0435445124592
185,21.9451936,0.0490855346741
186,21.994368,0.0535568650468
187,22.0346016,0.0559537664279
188,21.994368,0.0550890793078
189,21.9451936,0.0482834818877
190,21.994368,0.0344653490467
191,22.12848,0.0211913426924
192,22.2581216,0.0090158627898
193,22.4816416,0.00249552584526
194,22.754336,-0.000520579045772
195,23.0627936,-0.000477575106111
196,23.4696,0.000490016509103
197,23.4696,0.00111730584826
198,23.2863136,0.000877892634433
199,23.3757216,-0.000395722714883
200,23.5098336,-0.00199910010912
201,23.648416,-0.0023613092576
202,23.8227616,-0.000731079313109
203,24.0462816,0.00049901612232
204,24.229568,-0.00247958366541
205,24.4039136,-0.010693064926
206,24.6274336,-0.0227791329144
207,24.81072,-0.0341524939173
208,24.9403616,-0.0398881853327
209,25.0744736,-0.0377520077034
210,25.25776,-0.0305816565666
211,25.3874016,-0.0207729610814
212,25.5215136,-0.0116298441865
213,25.6109216,-5.79998377902e-05
214,25.7048,0.0113862034173
215,25.8344416,0.0202767652233
216,25.8344416,0.0297150001655
217,25.7450336,0.0365060353532
218,25.5215136,0.0378823355388
219,25.1638816,0.0322662033336
220,24.6274336,0.0210540043377
221,24.2698016,0.00576603442189
222,24.0462816,-0.0110529543587
223,23.91664,-0.0268997629181
224,23.91664,-0.0394727098421
225,24.0462816,-0.046296127054
226,24.229568,-0.0462261100372
227,24.4039136,-0.040062019432
228,23.91664,-0.0308629286457
229,22.217888,-0.020145297669
230,20.519136,-0.00991800360994
231,19.0394336,-0.00114401818873
232,18.2347616,0.00737564554599
233,17.1171616,0.0150648112275
234,15.825216,0.0204942479812
235,14.75232,0.0242975979871
236,14.4349216,0.0259137686462
237,14.707616,0.0251113020134
238,15.19936,0.0230686790932
239,15.9101536,0.0184909982074
240,16.5807136,0.0138341289643
241,17.1171616,0.0088537294314
242,17.300448,0.00322271880014
243,17.300448,-0.00139642888683
244,17.3406816,-0.00468282871589
245,17.523968,-0.00654154833513
246,17.4549464843,-0.00644230538237
247,17.1171616,-0.00452243140201
248,16.719296,-0.00273223989427
249,16.629888,-0.00193220278868
250,16.764,-0.00379425735215
251,17.523968,-0.0106238489654
252,18.418048,-0.0230359187886
253,19.312128,-0.039633529517
254,20.206208,-0.0619059757815
255,21.189696,-0.0839219344335
256,22.083776,-0.0986330763736
257,22.6157536,-0.10170367616
258,23.201376,-0.0911921056572
259,23.5992416,-0.0732064274558
260,23.9568736,-0.0554131706732
261,24.0462816,-0.0388076830143
262,24.0849048536,-0.0264288901926
263,24.1214578796,-0.0159760039314
264,24.1170722926,-0.00601378248184
265,24.0328797073,0.00128904794086
266,23.8300117383,0.00752690266206
267,23.4696,0.0129485245116
268,22.977856,0.0171969875116
269,22.57552,0.0196265251419
270,22.307296,0.0200222027536
271,22.1687136,0.0188399494247
272,22.0346016,0.0164689825571
273,22.083776,0.0124756926091
274,22.0346016,0.00750863131606
275,22.083776,-0.000471360363193
276,22.2581216,-0.00873700661074
277,22.4816416,-0.0166310914982
278,22.8392736,-0.0235967771526
279,23.201376,-0.0279071631627
280,23.5992416,-0.0302267935117
281,23.9568736,-0.0301517773444
282,24.0462816,-0.0271221495398
283,24.14016,-0.0221822500174
284,23.91664,-0.0156707521622
285,23.559008,-0.00821158338629
286,23.424896,0.000139521558182
287,23.201376,0.00928551811832
288,22.8392736,0.0180097997826
289,22.530816,0.0247064416723
290,22.352,0.0304832480224
291,22.352,0.0337454636581
292,22.12848,0.0360351982185
293,21.68144,0.0377195055801
294,21.2746336,0.0400281451143
295,20.8275936,0.0433562160592
296,20.1168,0.0474608965569
297,19.4864736,0.0512328789843
298,18.9053216,0.0554265933088
299,18.9053216,0.0585457580318
300,18.5923936,0.0609449946745
301,18.5923936,0.062527538758
302,18.641568,0.0632920342395
303,18.8159136,0.0628186114772
304,18.8159136,0.0610745593025
305,18.865088,0.0574259941595
306,18.954496,0.053169900792
307,19.088608,0.048146158382
308,19.22272,0.0412624767075
309,19.22272,0.033983038449
310,19.22272,0.0276763051987
311,19.178016,0.0208090359831
312,18.954496,0.0156445537727
313,19.0394336,0.0100410059907
314,19.22272,0.005358924635
315,19.401536,0.0001989130917
316,19.5758816,-0.00358608738131
317,19.5758816,-0.00644802185407
318,19.625056,-0.00715697147326
319,19.759168,-0.00596575124919
320,19.9335136,-0.00291664592781
321,19.9335136,0.000899822522472
322,19.848576,0.00640514477195
323,19.535648,0.0127272447533
324,19.312128,0.0184642130226
325,18.954496,0.0240330438467
326,18.507456,0.0296648661484
327,17.7877216,0.0330382036086
328,16.495776,0.0343845112722
329,14.931136,0.0338618194147
330,13.5855456,0.0323119790561
331,11.5291616,0.0308114994109
332,9.253728,0.0298365664839
333,7.867904,0.0291279333161
334,7.3269856,0.0288432454966
